#Time Total flux(top) flux(bottom)
0.1 1e-09 -1e-08 0
0.106694 1.06694e-09 -1e-08 0
0.112736 1.12736e-09 -1e-08 0
0.118828 1.18828e-09 -1e-08 0
0.123594 1.23594e-09 -1e-08 0
0.129552 1.29552e-09 -1e-08 0
0.136999 1.36999e-09 -1e-08 0
0.146308 1.46308e-09 -1e-08 0
0.157945 1.57945e-09 -1e-08 0
0.17249 1.7249e-09 -1e-08 0
0.190672 1.90672e-09 -1e-08 0
0.2134 2.134e-09 -1e-08 0
0.241809 2.41809e-09 -1e-08 0
0.27732 2.7732e-09 -1e-08 0
0.288902 2.88902e-09 -1e-08 0
0.303379 3.03379e-09 -1e-08 0
0.321475 3.21475e-09 -1e-08 0
0.344095 3.44095e-09 -1e-08 0
0.37237 3.72371e-09 -1e-08 0
0.407715 4.07715e-09 -1e-08 0
0.451895 4.51895e-09 -1e-08 0
0.50712 5.0712e-09 -1e-08 0
0.576151 5.76151e-09 -1e-08 0
0.662441 6.62441e-09 -1e-08 0
0.770302 7.70302e-09 -1e-08 0
0.905129 9.0513e-09 -1e-08 0
1.07366 1.07366e-08 -1e-08 0
1.28433 1.28433e-08 -1e-08 0
1.54766 1.54767e-08 -1e-08 0
1.87683 1.87683e-08 -1e-08 0
2.28829 2.28829e-08 -1e-08 0
2.80262 2.80262e-08 -1e-08 0
3.44552 3.44553e-08 -1e-08 0
4.24915 4.24916e-08 -1e-08 0
5.25369 5.25371e-08 -1.00001e-08 0
6.50937 6.50939e-08 -1.00001e-08 0
8.07896 8.079e-08 -1.00001e-08 0
10.041 1.0041e-07 -1.00001e-08 0
12.4934 1.24935e-07 -1.00001e-08 0
15.5591 1.55592e-07 -1.00002e-08 0
19.3911 1.93913e-07 -1.00002e-08 0
24.1811 2.41814e-07 -1.00002e-08 0
30.1686 3.01691e-07 -1.00003e-08 0
37.653 3.76537e-07 -1.00004e-08 0
47.0085 4.70096e-07 -1.00005e-08 0
58.7029 5.87047e-07 -1.00006e-08 0
73.3209 7.33236e-07 -1.00007e-08 0
91.5934 9.15976e-07 -1.00009e-08 0
114.434 1.1444e-06 -1.00011e-08 0
142.984 1.42994e-06 -1.00014e-08 0
176.461 1.76477e-06 -1.00018e-08 0
215.244 2.15267e-06 -1.00022e-08 0
259.555 2.59588e-06 -1.00026e-08 0
309.753 3.09801e-06 -1.00031e-08 0
366.245 3.66312e-06 -1.00037e-08 0
429.441 4.29533e-06 -1.00043e-08 0
499.754 4.99879e-06 -1.0005e-08 0
577.603 5.7777e-06 -1.00058e-08 0
663.412 6.63632e-06 -1.00066e-08 0
757.609 7.57896e-06 -1.00076e-08 0
860.624 8.60994e-06 -1.00086e-08 0
972.887 9.7336e-06 -1.00097e-08 0
1094.85 1.09545e-05 -1.00109e-08 0
1226.97 1.22772e-05 -1.00123e-08 0
1369.71 1.37065e-05 -1.00137e-08 0
1523.53 1.52469e-05 -1.00152e-08 0
1688.93 1.69035e-05 -1.00169e-08 0
1866.37 1.86811e-05 -1.00187e-08 0
2056.38 2.0585e-05 -1.00206e-08 0
2259.47 2.26202e-05 -1.00226e-08 0
2476.18 2.47924e-05 -1.00248e-08 0
2707.03 2.7107e-05 -1.00271e-08 0
2952.61 2.95697e-05 -1.00295e-08 0
3213.48 3.21865e-05 -1.00321e-08 0
3490.29 3.49638e-05 -1.00349e-08 0
3783.64 3.7908e-05 -1.00378e-08 0
4094.08 4.10247e-05 -1.00409e-08 0
4422.44 4.43222e-05 -1.00442e-08 0
4769.33 4.78071e-05 -1.00477e-08 0
5135.5 5.14868e-05 -1.00514e-08 0
5521.7 5.53694e-05 -1.00552e-08 0
5928.77 5.94635e-05 -1.00593e-08 0
6357.44 6.37765e-05 -1.00636e-08 0
6808.68 6.83186e-05 -1.00681e-08 0
7283.44 7.30996e-05 -1.00728e-08 0
7782.79 7.81308e-05 -1.00778e-08 0
8307.78 8.34229e-05 -1.00831e-08 0
8859.33 8.89857e-05 -1.00886e-08 0
9438.6 9.48315e-05 -1.00944e-08 0
10047.1 0.000100975 -1.01005e-08 0
10686.1 0.000107432 -1.01069e-08 0
11356.9 0.000114214 -1.01136e-08 0
12061 0.000121338 -1.01206e-08 0
12800.5 0.000128824 -1.0128e-08 0
13577.2 0.000136694 -1.01358e-08 0
14392.4 0.00014496 -1.01439e-08 0
15249.5 0.000153658 -1.01525e-08 0
16149.6 0.0001628 -1.01615e-08 0
17095.6 0.000172418 -1.0171e-08 0
18091.5 0.000182551 -1.01809e-08 0
19139.4 0.000193226 -1.01914e-08 0
20242.8 0.000204476 -1.02024e-08 0
21406.4 0.000216355 -1.02141e-08 0
22634.2 0.000228904 -1.02263e-08 0
23932.2 0.000242185 -1.02393e-08 0
25306.9 0.000256271 -1.02531e-08 0
26763.9 0.00027122 -1.02676e-08 0
28311.1 0.000287119 -1.02831e-08 0
30246.8 0.000307042 -1.03025e-08 0
32416.2 0.000329416 -1.03242e-08 0
34703.7 0.000353058 -1.0347e-08 0
37104.9 0.000377933 -1.0371e-08 0
39593 0.000403768 -1.03959e-08 0
42181.7 0.000430713 -1.04218e-08 0
44872.2 0.00045879 -1.04487e-08 0
47681.4 0.000488182 -1.04768e-08 0
50611.6 0.000518924 -1.05061e-08 0
53674.2 0.000551146 -1.05367e-08 0
56010.8 0.000575794 -1.05601e-08 0
58575.9 0.000602915 -1.05858e-08 0
61148.1 0.000630177 -1.06115e-08 0
64363.4 0.000664347 -1.06436e-08 0
66696.6 0.000689209 -1.0667e-08 0
69282 0.00071682 -1.06928e-08 0
71804.2 0.000743822 -1.0718e-08 0
74433.7 0.000772039 -1.07443e-08 0
77172.1 0.000801498 -1.07717e-08 0
80029.1 0.000832314 -1.08003e-08 0
83025.8 0.000864724 -1.08303e-08 0
86166.1 0.000898784 -1.08617e-08 0
89477.1 0.000934801 -1.08948e-08 0
92404.8 0.000966741 -1.0924e-08 0
95481.4 0.0010004 -1.09548e-08 0
98579.1 0.00103438 -1.09858e-08 0
101787 0.00106967 -1.10179e-08 0
105126 0.00110652 -1.10513e-08 0
108595 0.00114491 -1.10859e-08 0
112218 0.00118515 -1.11222e-08 0
116028 0.0012276 -1.11603e-08 0
120028 0.00127232 -1.12003e-08 0
123591 0.00131228 -1.12359e-08 0
127336 0.00135443 -1.12734e-08 0
131114 0.00139709 -1.13111e-08 0
135046 0.00144164 -1.13505e-08 0
139145 0.00148826 -1.13914e-08 0
143428 0.00153714 -1.14343e-08 0
147357 0.00158214 -1.14736e-08 0
151456 0.00162926 -1.15146e-08 0
155616 0.00167724 -1.15562e-08 0
159924 0.00172712 -1.15992e-08 0
164392 0.00177905 -1.16439e-08 0
169061 0.00183351 -1.16906e-08 0
173920 0.00189044 -1.17392e-08 0
178385 0.00194296 -1.17839e-08 0
183053 0.00199808 -1.18305e-08 0
187776 0.00205405 -1.18778e-08 0
192698 0.00211265 -1.1927e-08 0
197808 0.00217372 -1.19781e-08 0
202583 0.00223103 -1.20258e-08 0
207567 0.00229108 -1.20757e-08 0
212614 0.00235216 -1.21261e-08 0
217863 0.00241595 -1.21786e-08 0
223295 0.00248225 -1.22329e-08 0
228438 0.0025453 -1.22844e-08 0
233759 0.00261081 -1.23376e-08 0
239156 0.00267753 -1.23916e-08 0
244750 0.00274701 -1.24475e-08 0
250560 0.0028195 -1.25056e-08 0
256070 0.00288856 -1.25607e-08 0
261793 0.0029606 -1.26179e-08 0
267605 0.00303412 -1.26761e-08 0
273609 0.00311039 -1.27361e-08 0
279871 0.00319034 -1.27987e-08 0
285773 0.00326607 -1.28577e-08 0
291930 0.00334542 -1.29193e-08 0
298197 0.00342657 -1.2982e-08 0
304695 0.00351114 -1.30469e-08 0
310848 0.00359161 -1.31085e-08 0
317229 0.00367546 -1.31723e-08 0
323731 0.00376133 -1.32373e-08 0
330494 0.00385107 -1.33049e-08 0
336932 0.00393693 -1.33693e-08 0
343629 0.0040267 -1.34363e-08 0
350467 0.0041188 -1.35047e-08 0
357527 0.00421439 -1.35753e-08 0
364290 0.00430643 -1.36429e-08 0
371275 0.00440198 -1.37128e-08 0
378420 0.00450021 -1.37842e-08 0
385820 0.00460248 -1.38582e-08 0
392961 0.00470171 -1.39296e-08 0
400364 0.0048051 -1.40036e-08 0
407860 0.00491035 -1.40786e-08 0
415651 0.00502034 -1.41565e-08 0
423143 0.00512668 -1.42314e-08 0
430938 0.00523792 -1.43094e-08 0
438842 0.00535133 -1.43884e-08 0
446529 0.00546223 -1.44653e-08 0
454436 0.00557691 -1.45444e-08 0
462578 0.00569568 -1.46258e-08 0
470976 0.00581885 -1.47098e-08 0
478991 0.00593707 -1.47899e-08 0
487394 0.00606171 -1.48739e-08 0
495938 0.00618915 -1.49594e-08 0
504201 0.00631311 -1.5042e-08 0
512749 0.00644205 -1.51275e-08 0
521450 0.00657406 -1.52145e-08 0
529996 0.00670444 -1.53e-08 9.88131e-324
538700 0.00683798 -1.5387e-08 6.96633e-322
547745 0.00697757 -1.54774e-08 2.59696e-319
556442 0.00711256 -1.55644e-08 1.05307e-317
565494 0.00725386 -1.56549e-08 9.84581e-316
574739 0.00739901 -1.57474e-08 2.22765e-313
583787 0.00754191 -1.58379e-08 1.18509e-311
593036 0.00768882 -1.59304e-08 8.86774e-310
602501 0.00784004 -1.6025e-08 1.37247e-307
611745 0.00798861 -1.61174e-08 6.27946e-306
621214 0.00814168 -1.62121e-08 4.11162e-304
630927 0.00829961 -1.63093e-08 5.91828e-302
640390 0.0084544 -1.64039e-08 2.50824e-300
650379 0.00861876 -1.65038e-08 4.73606e-298
659829 0.00877515 -1.65983e-08 1.33599e-296
669834 0.00894172 -1.66983e-08 1.01517e-294
679839 0.00910929 -1.67984e-08 7.70327e-293
689844 0.00927786 -1.68984e-08 4.17379e-291
699849 0.00944743 -1.69985e-08 1.81255e-289
710199 0.0096239 -1.7102e-08 1.66535e-287
720192 0.0097953 -1.72019e-08 5.2189e-286
730555 0.00997411 -1.73056e-08 2.7e-284
740918 0.010154 -1.74092e-08 1.30542e-282
751282 0.0103349 -1.75128e-08 5.1265e-281
762096 0.0105249 -1.7621e-08 5.28411e-279
772439 0.0107077 -1.77244e-08 1.49351e-277
783275 0.0109004 -1.78328e-08 8.15072e-276
794112 0.0110942 -1.79411e-08 4.24106e-274
804948 0.0112892 -1.80495e-08 1.73465e-272
816422 0.0114969 -1.81642e-08 3.48627e-270
827220 0.0116937 -1.82722e-08 9.11523e-269
838739 0.0119048 -1.83874e-08 6.82794e-267
849490 0.0121031 -1.84949e-08 1.34884e-265
861067 0.0123179 -1.86107e-08 6.97125e-264
872645 0.012534 -1.87265e-08 3.91769e-262
884223 0.0127515 -1.88422e-08 1.67004e-260
895801 0.0129703 -1.8958e-08 5.87811e-259
907378 0.0131905 -1.90738e-08 1.78668e-257
918956 0.013412 -1.91896e-08 4.82038e-256
930534 0.0136348 -1.93053e-08 1.176e-254
942111 0.013859 -1.94211e-08 2.62941e-253
953689 0.0140845 -1.95369e-08 5.44323e-252
965267 0.0143114 -1.96527e-08 1.05165e-250
976845 0.0145396 -1.97684e-08 1.90855e-249
988422 0.0147691 -1.98842e-08 3.27087e-248
1e+06 0.015 -2e-08 5.31723e-247
1.01235e+06 0.0152454 -1.98427e-08 1.82176e-245
1.01771e+06 0.0153511 -1.96457e-08 3.89129e-245
1.02299e+06 0.0154546 -1.95401e-08 7.82262e-245
1.02895e+06 0.0155707 -1.9421e-08 1.72967e-244
1.03498e+06 0.0156874 -1.93003e-08 3.88964e-244
1.04193e+06 0.0158209 -1.91615e-08 1.01757e-243
1.04947e+06 0.0159649 -1.90106e-08 3.00704e-243
1.05788e+06 0.0161241 -1.88424e-08 1.07098e-242
1.06712e+06 0.0162973 -1.86576e-08 4.73172e-242
1.07704e+06 0.0164815 -1.84592e-08 2.60588e-241
1.08718e+06 0.0166677 -1.82563e-08 1.58164e-240
1.0978e+06 0.0168603 -1.8044e-08 1.14319e-239
1.10908e+06 0.0170625 -1.78185e-08 1.12894e-238
1.12096e+06 0.0172728 -1.75809e-08 1.66457e-237
1.13316e+06 0.017486 -1.73367e-08 3.29996e-236
1.14591e+06 0.0177053 -1.70818e-08 1.13799e-234
1.15926e+06 0.0179315 -1.68149e-08 1.02243e-232
1.17282e+06 0.0181577 -1.65437e-08 1.01552e-230
1.18684e+06 0.0183877 -1.62633e-08 1.80954e-228
1.20136e+06 0.0186217 -1.59728e-08 7.12262e-226
1.21615e+06 0.0188558 -1.5677e-08 1.95977e-223
1.23152e+06 0.0190943 -1.53697e-08 1.42509e-220
1.2472e+06 0.0193329 -1.5056e-08 6.72998e-218
1.26322e+06 0.0195715 -1.47356e-08 2.51781e-215
1.27959e+06 0.0198101 -1.44082e-08 9.40707e-213
1.29634e+06 0.0200487 -1.40731e-08 3.81247e-210
1.31351e+06 0.0202873 -1.37299e-08 1.76117e-207
1.33111e+06 0.0205258 -1.33778e-08 9.64188e-205
1.34871e+06 0.0207582 -1.30258e-08 1.33658e-202
1.3668e+06 0.0209906 -1.26639e-08 3.24277e-200
1.38489e+06 0.0212164 -1.23021e-08 3.51589e-198
1.40353e+06 0.0214423 -1.19293e-08 7.34042e-196
1.42217e+06 0.0216612 -1.15565e-08 7.42533e-194
1.44143e+06 0.02188 -1.11713e-08 1.60268e-191
1.46138e+06 0.0220989 -1.07723e-08 1.00917e-188
1.48133e+06 0.0223098 -1.03734e-08 1.45922e-186
1.50128e+06 0.0225128 -9.97439e-09 1.07247e-184
1.52206e+06 0.0227157 -9.55879e-09 2.47055e-182
1.54284e+06 0.0229101 -9.14319e-09 2.70544e-180
1.56362e+06 0.0230957 -8.72759e-09 1.69095e-178
1.58544e+06 0.0232814 -8.29121e-09 4.24477e-176
1.60726e+06 0.0234575 -7.85483e-09 4.88401e-174
1.62908e+06 0.0236242 -7.41845e-09 3.06941e-172
1.6509e+06 0.0237813 -6.98207e-09 1.39504e-170
1.67272e+06 0.0239288 -6.54569e-09 5.07593e-169
1.69453e+06 0.0240669 -6.10931e-09 1.55847e-167
1.71803e+06 0.0242049 -5.63937e-09 2.73529e-165
1.74153e+06 0.0243319 -5.16942e-09 2.92941e-163
1.76503e+06 0.0244479 -4.69947e-09 1.68331e-161
1.78852e+06 0.0245528 -4.22952e-09 6.9959e-160
1.81202e+06 0.0246466 -3.75958e-09 2.33357e-158
1.83552e+06 0.0247295 -3.28963e-09 6.58715e-157
1.85902e+06 0.0248012 -2.81968e-09 1.62495e-155
1.87664e+06 0.0248478 -2.46722e-09 7.72939e-155
1.89426e+06 0.0248882 -2.11476e-09 3.34583e-154
1.91188e+06 0.0249224 -1.7623e-09 1.43651e-153
1.92951e+06 0.0249503 -1.40984e-09 6.14753e-153
1.94713e+06 0.024972 -1.05738e-09 2.62297e-152
1.96475e+06 0.0249876 -7.04921e-10 1.11575e-151
1.98238e+06 0.0249969 -3.5246e-10 4.73152e-151
2e+06 0.025 3.30872e-24 2.00017e-150
2.01852e+06 0.0250017 -4.97376e-11 9.48437e-150
2.02011e+06 0.025002 -2.01067e-10 1.04506e-149
2.02141e+06 0.0250023 -2.1408e-10 1.13025e-149
2.02274e+06 0.0250026 -2.27394e-10 1.22421e-149
2.02373e+06 0.0250028 -2.37285e-10 1.2989e-149
2.02496e+06 0.0250031 -2.49643e-10 1.39862e-149
2.02637e+06 0.0250035 -2.63652e-10 1.52098e-149
2.02798e+06 0.0250039 -2.79799e-10 1.67542e-149
2.02972e+06 0.0250044 -2.97187e-10 1.85943e-149
2.03154e+06 0.025005 -3.15358e-10 2.0734e-149
2.03341e+06 0.0250056 -3.3409e-10 2.31987e-149
2.03533e+06 0.0250062 -3.53306e-10 2.60323e-149
2.0373e+06 0.025007 -3.73034e-10 2.93021e-149
2.03933e+06 0.0250077 -3.93344e-10 3.30989e-149
2.04143e+06 0.0250086 -4.14319e-10 3.7538e-149
2.04361e+06 0.0250095 -4.36055e-10 4.27687e-149
2.04586e+06 0.0250105 -4.58559e-10 4.8955e-149
2.0482e+06 0.0250116 -4.82002e-10 5.63557e-149
2.05064e+06 0.0250128 -5.06407e-10 6.52547e-149
2.05329e+06 0.0250142 -5.32852e-10 7.64989e-149
2.05592e+06 0.0250156 -5.59223e-10 8.96455e-149
2.0586e+06 0.0250172 -5.85967e-10 1.0529e-148
2.06128e+06 0.0250188 -6.12788e-10 1.23721e-148
2.06399e+06 0.0250205 -6.39918e-10 1.45652e-148
2.06674e+06 0.0250223 -6.67367e-10 1.71801e-148
2.06953e+06 0.0250242 -6.95309e-10 2.03251e-148
2.07238e+06 0.0250262 -7.23764e-10 2.41209e-148
2.07528e+06 0.0250283 -7.52843e-10 2.87345e-148
2.07827e+06 0.0250306 -7.82673e-10 3.43874e-148
2.08133e+06 0.0250331 -8.13295e-10 4.13519e-148
2.08449e+06 0.0250357 -8.44864e-10 5.00157e-148
2.08776e+06 0.0250385 -8.77561e-10 6.09136e-148
2.09113e+06 0.0250415 -9.11348e-10 7.46842e-148
2.09464e+06 0.0250448 -9.46439e-10 9.2305e-148
2.09817e+06 0.0250482 -9.81667e-10 1.14185e-147
2.10173e+06 0.0250517 -1.01731e-09 1.41613e-147
2.10534e+06 0.0250555 -1.05339e-09 1.76093e-147
2.10899e+06 0.0250594 -1.0899e-09 2.19562e-147
2.11272e+06 0.0250635 -1.12719e-09 2.75048e-147
2.11653e+06 0.0250679 -1.16527e-09 3.46259e-147
2.12044e+06 0.0250725 -1.20436e-09 4.38637e-147
2.12445e+06 0.0250774 -1.24452e-09 5.59361e-147
2.1286e+06 0.0250827 -1.28602e-09 7.19232e-147
2.13279e+06 0.0250882 -1.32791e-09 9.27146e-147
2.13702e+06 0.0250939 -1.37021e-09 1.1982e-146
2.14129e+06 0.0250998 -1.41293e-09 1.55253e-146
2.14563e+06 0.025106 -1.4563e-09 2.0197e-146
2.15006e+06 0.0251126 -1.50057e-09 2.64217e-146
2.15458e+06 0.0251195 -1.54578e-09 3.47686e-146
2.15922e+06 0.0251268 -1.59223e-09 4.61092e-146
2.164e+06 0.0251345 -1.64e-09 6.1658e-146
2.16878e+06 0.0251424 -1.68778e-09 8.24577e-146
2.17361e+06 0.0251507 -1.7361e-09 1.10655e-145
2.1785e+06 0.0251593 -1.785e-09 1.49025e-145
2.18348e+06 0.0251683 -1.83479e-09 2.01822e-145
2.18855e+06 0.0251778 -1.8855e-09 2.74928e-145
2.19375e+06 0.0251877 -1.93752e-09 3.77602e-145
2.19913e+06 0.0251983 -1.99127e-09 5.24358e-145
2.2044e+06 0.0252089 -2.04396e-09 7.23407e-145
2.20977e+06 0.02522 -2.09772e-09 1.00462e-144
2.21522e+06 0.0252316 -2.15222e-09 1.40174e-144
2.22079e+06 0.0252437 -2.20787e-09 1.97028e-144
2.22648e+06 0.0252565 -2.26475e-09 2.79109e-144
2.23234e+06 0.0252699 -2.32335e-09 3.99776e-144
2.23811e+06 0.0252835 -2.38107e-09 5.69504e-144
2.24397e+06 0.0252976 -2.43968e-09 8.15772e-144
2.24992e+06 0.0253123 -2.49921e-09 1.17544e-143
2.25597e+06 0.0253276 -2.5597e-09 1.70416e-143
2.26217e+06 0.0253437 -2.6217e-09 2.49489e-143
2.26832e+06 0.02536 -2.68319e-09 3.64094e-143
2.27457e+06 0.0253769 -2.74572e-09 5.34872e-143
2.28094e+06 0.0253946 -2.80936e-09 7.91339e-143
2.28741e+06 0.025413 -2.87414e-09 1.17955e-142
2.29407e+06 0.0254324 -2.94073e-09 1.77912e-142
2.30061e+06 0.0254518 -3.0061e-09 2.66267e-142
2.30727e+06 0.0254721 -3.07271e-09 4.01626e-142
2.314e+06 0.025493 -3.13996e-09 6.08365e-142
2.32093e+06 0.025515 -3.20925e-09 9.33815e-142
2.328e+06 0.0255379 -3.27999e-09 1.44727e-141
2.335e+06 0.0255611 -3.34999e-09 2.23267e-141
2.34207e+06 0.0255851 -3.42074e-09 3.46036e-141
2.3493e+06 0.0256101 -3.49304e-09 5.41784e-141
2.3567e+06 0.0256362 -3.56698e-09 8.57604e-141
2.36401e+06 0.0256625 -3.64008e-09 1.35031e-140
2.3714e+06 0.0256897 -3.71403e-09 2.13746e-140
2.37898e+06 0.0257181 -3.78977e-09 3.42343e-140
2.38664e+06 0.0257475 -3.86644e-09 5.51825e-140
2.39431e+06 0.0257774 -3.94311e-09 8.89556e-140
2.40208e+06 0.0258083 -4.02076e-09 1.44317e-139
2.40994e+06 0.0258403 -4.09943e-09 2.35735e-139
2.41803e+06 0.0258737 -4.18026e-09 3.9067e-139
2.426e+06 0.0259074 -4.25999e-09 6.42846e-139
2.43408e+06 0.0259421 -4.34083e-09 1.0654e-138
2.44228e+06 0.0259781 -4.42285e-09 1.77964e-138
2.45074e+06 0.0260158 -4.50735e-09 3.02319e-138
2.45906e+06 0.0260537 -4.59057e-09 5.09345e-138
2.46751e+06 0.0260928 -4.6751e-09 8.65342e-138
2.4761e+06 0.0261333 -4.76098e-09 1.48384e-137
2.48469e+06 0.0261746 -4.84687e-09 2.54473e-137
2.49328e+06 0.0262166 -4.93275e-09 4.3632e-137
2.50201e+06 0.0262601 -5.02012e-09 7.55496e-137
2.5109e+06 0.0263051 -5.10904e-09 1.3223e-136
2.5198e+06 0.0263509 -5.19797e-09 2.31475e-136
2.52886e+06 0.0263985 -5.28858e-09 4.09809e-136
2.5381e+06 0.0264477 -5.38096e-09 7.346e-136
2.54715e+06 0.0264969 -5.47153e-09 1.30074e-135
2.55639e+06 0.0265479 -5.56394e-09 2.33102e-135
2.56583e+06 0.0266008 -5.65833e-09 4.23519e-135
2.57527e+06 0.0266547 -5.75271e-09 7.69703e-135
2.58471e+06 0.0267094 -5.8471e-09 1.39848e-134
2.59437e+06 0.0267664 -5.94368e-09 2.57918e-134
2.60403e+06 0.0268242 -6.04025e-09 4.75803e-134
2.61368e+06 0.026883 -6.13683e-09 8.77486e-134
2.62359e+06 0.0269443 -6.23589e-09 1.64601e-133
2.63349e+06 0.0270066 -6.33494e-09 3.08872e-133
2.6434e+06 0.0270698 -6.434e-09 5.79408e-133
2.65359e+06 0.0271359 -6.53589e-09 1.1084e-132
2.66378e+06 0.027203 -6.63777e-09 2.12135e-132
2.67397e+06 0.0272711 -6.73966e-09 4.0586e-132
2.68448e+06 0.0273426 -6.84483e-09 7.94555e-132
2.695e+06 0.0274151 -6.95e-09 1.55649e-131
2.70552e+06 0.0274888 -7.05517e-09 3.04791e-131
2.71642e+06 0.0275663 -7.16424e-09 6.13542e-131
2.72693e+06 0.0276421 -7.26927e-09 1.20048e-130
2.73785e+06 0.0277221 -7.3785e-09 2.41682e-130
2.74877e+06 0.0278033 -7.48773e-09 4.86936e-130
2.7597e+06 0.0278857 -7.59696e-09 9.8063e-130
2.77062e+06 0.0279693 -7.70619e-09 1.97363e-129
2.78154e+06 0.028054 -7.81542e-09 3.96956e-129
2.79304e+06 0.0281446 -7.93039e-09 8.32138e-129
2.80454e+06 0.0282364 -8.04537e-09 1.74731e-128
2.81604e+06 0.0283296 -8.16035e-09 3.66725e-128
2.82753e+06 0.0284241 -8.27533e-09 7.69099e-128
2.83903e+06 0.0285199 -8.39031e-09 1.61167e-127
2.85053e+06 0.028617 -8.50528e-09 3.37456e-127
2.86203e+06 0.0287154 -8.62026e-09 7.05994e-127
2.87352e+06 0.0288152 -8.73524e-09 1.4758e-126
2.88502e+06 0.0289163 -8.85022e-09 3.08241e-126
2.89652e+06 0.0290187 -8.9652e-09 6.43267e-126
2.90802e+06 0.0291225 -9.08018e-09 1.3413e-125
2.91952e+06 0.0292275 -9.19515e-09 2.79441e-125
2.93101e+06 0.0293339 -9.31013e-09 5.81678e-125
2.94251e+06 0.0294416 -9.42511e-09 1.20977e-124
2.95401e+06 0.0295507 -9.54009e-09 2.51387e-124
2.96551e+06 0.029661 -9.65507e-09 5.21922e-124
2.977e+06 0.0297727 -9.77004e-09 1.08264e-123
2.9885e+06 0.0298857 -9.88502e-09 2.24378e-123
3e+06 0.03 -1e-08 4.64611e-123
3.01266e+06 0.0301266 -1.00301e-08 1.04714e-122
3.01879e+06 0.0301879 -1e-08 1.51137e-122
3.02504e+06 0.0302504 -1e-08 2.18177e-122
3.03196e+06 0.0303196 -1e-08 3.27524e-122
3.03913e+06 0.0303913 -1e-08 4.99729e-122
3.04734e+06 0.0304734 -1e-08 8.14109e-122
3.0565e+06 0.030565 -1e-08 1.41238e-121
3.06675e+06 0.0306675 -1e-08 2.64172e-121
3.07814e+06 0.0307814 -1e-08 5.35947e-121
3.0898e+06 0.030898 -1e-08 1.11461e-120
3.10227e+06 0.0310227 -1e-08 2.45965e-120
3.11547e+06 0.0311547 -1e-08 5.75343e-120
3.12951e+06 0.0312951 -1e-08 1.44162e-119
3.14402e+06 0.0314402 -1e-08 3.76673e-119
3.15931e+06 0.0315931 -1e-08 1.05232e-118
3.17517e+06 0.0317517 -1e-08 3.10311e-118
3.19167e+06 0.0319167 -1e-08 9.71455e-118
3.20887e+06 0.0320887 -1e-08 3.25856e-117
3.22645e+06 0.0322645 -1e-08 1.13824e-116
3.24486e+06 0.0324486 -1e-08 4.33048e-116
3.26374e+06 0.0326374 -1e-08 1.73797e-115
3.28312e+06 0.0328312 -1e-08 7.36535e-115
3.30303e+06 0.0330303 -1e-08 3.31723e-114
3.32353e+06 0.0332353 -1e-08 1.60091e-113
3.34467e+06 0.0334467 -1e-08 8.36426e-113
3.36581e+06 0.0336581 -1e-08 4.34968e-112
3.38768e+06 0.0338768 -1e-08 2.45666e-111
3.40955e+06 0.0340955 -1e-08 1.37852e-110
3.43226e+06 0.0343226 -1e-08 8.55004e-110
3.45497e+06 0.0345497 -1e-08 5.25915e-109
