#Time Total flux(top) flux(bottom)
1 1.373903999e-08 -1.373904e-08 0
1.310723247 1.80080791e-08 -1.373904e-08 0
1.622380183 2.22899462e-08 -1.373904e-08 0
2.011951348 2.764228001e-08 -1.373904e-08 0
2.498915311 3.433269737e-08 -1.373904e-08 0
3.107620278 4.269571923e-08 -1.373904e-08 0
3.868501495 5.314949667e-08 -1.373904e-08 0
4.819602988 6.621671806e-08 -1.373904e-08 0
6.008479809 8.255074418e-08 -1.373904e-08 0
7.494575905 1.029682778e-07 -1.373904e-08 0
9.35219608 1.284901954e-07 -1.373904e-08 0
11.6742213 1.603925925e-07 -1.373904e-08 0
14.57675282 2.002705886e-07 -1.373904e-08 0
18.20491702 2.501180808e-07 -1.373904e-08 0
22.74012194 3.124274414e-07 -1.373904e-08 0
28.40912809 3.903141416e-07 -1.373904e-08 0
35.49538498 4.876725054e-07 -1.373904e-08 0
44.35320485 6.09370442e-07 -1.373904e-08 0
55.42548357 7.614929147e-07 -1.373904e-08 0
69.26583804 9.516460866e-07 -1.373904e-08 0
86.56627639 1.189337483e-06 -1.373904e-08 0
108.1918095 1.486451518e-06 -1.373904e-08 0
135.2237259 1.857844054e-06 -1.373904e-08 0
169.0136576 2.322085206e-06 -1.373904e-08 0
211.2511004 2.902387012e-06 -1.373904e-08 0
264.0479482 3.627764843e-06 -1.373904e-08 0
330.0438698 4.534485181e-06 -1.373904e-08 0
412.5387719 5.66788552e-06 -1.373904e-08 0
515.657231 7.084633497e-06 -1.373904e-08 0
644.5558314 8.855575496e-06 -1.373904e-08 0
805.6790819 1.106925267e-05 -1.373904e-08 0
1007.083788 1.383635748e-05 -1.373904e-08 0
1258.83967 1.72952377e-05 -1.373904e-08 0
1573.534523 2.161883674e-05 -1.373904e-08 0
1966.898185 2.702326627e-05 -1.373904e-08 0
2458.602763 3.377880018e-05 -1.373904e-08 0
3073.221512 4.222304841e-05 -1.373904e-08 0
3841.513658 5.277860843e-05 -1.373904e-08 0
4801.878839 6.597304705e-05 -1.373904e-08 0
6002.358158 8.246639133e-05 -1.373904e-08 0
7502.957307 9.097954784e-05 -1.192265851e-09 0
8155.024141 9.097948942e-05 1.718493493e-09 0
8959.955546 9.097941659e-05 0 0
9479.887949 9.097936936e-05 0 0
10129.80345 9.097931026e-05 0 0
10942.1769 9.097923637e-05 0 0
11957.64372 9.097914399e-05 0 0
13227.00279 9.097902851e-05 0 0
14813.74156 9.097888415e-05 0 0
16797.10262 9.097870371e-05 0 0
19148.13635 9.097848981e-05 0 0
21947.75694 9.097823511e-05 0 0
25266.45387 9.097793318e-05 0 0
29214.36159 9.097757401e-05 0 0
33915.30434 9.097714633e-05 0 0
39507.98524 9.097663752e-05 0 0
46155.38725 9.097603277e-05 0 0
54045.52817 9.097531496e-05 0 0
63397.45858 9.097446416e-05 0 0
74482.7565 9.097345569e-05 0 0
87608.8624 9.097226157e-05 0 0
103161.5065 9.097084672e-05 0 0
121573.0925 9.096917182e-05 0 0
143352.6516 9.096719057e-05 0 0
169137.1296 9.096484506e-05 0 0
199586.7698 9.096207526e-05 0 0
235596.7792 9.095879977e-05 0 0
278165.3126 9.095492787e-05 0 0
328552.5562 9.095034502e-05 0 0
387946.2154 9.094494331e-05 0 7.905050333e-323
458262.8463 9.093854859e-05 0 6.35069909e-297
541016.4324 9.093102341e-05 0 1.11259857e-273
638452.1063 9.092216391e-05 0 2.457184426e-252
753688.5284 9.091168697e-05 0 2.973702788e-232
888567.5224 9.089942572e-05 0 1.437823939e-214
1047141.475 9.088501259e-05 0 4.603720624e-198
1233849.516 9.086804521e-05 0 1.1249875e-182
1452872.409 9.08481452e-05 0 1.037237928e-168
1712643.749 9.082454852e-05 0 3.161549732e-155
2015710.311 9.079702681e-05 0 1.369547236e-143
2369287.968 9.076492868e-05 0 5.253819827e-133
2779438.049 9.072770907e-05 0 1.768168722e-123
3271618.146 9.068306568e-05 0 2.578027878e-113
3821701.785 9.063319613e-05 0 2.335242963e-106
4498727.801 9.057185585e-05 0 4.357890836e-97
5237301.638 9.050498654e-05 0 1.109729947e-91
6160518.933 9.042146931e-05 0 1.666055231e-83
7237605.777 9.032412993e-05 0 4.779548585e-77
8583964.333 9.020260304e-05 0 7.833268494e-70
9930322.889 9.008123964e-05 0 2.58189253e-67
11276681.44 8.996003953e-05 0 1.495176203e-65
12623040 8.983900249e-05 0 4.984071083e-64
14200920 8.9697359e-05 0 2.870497228e-61
16041780 8.953239046e-05 0 1.751659145e-57
18342855 8.932660629e-05 0 1.112271323e-52
21794467.5 8.901881615e-05 0 1.992246517e-45
25246080 8.871208628e-05 0 4.034309623e-43
29453760 8.833959666e-05 0 4.276947827e-40
33661440 8.796867077e-05 0 2.364056969e-38
37869120 8.759930226e-05 0 5.138647049e-37
44180640 8.704815361e-05 0 1.032262301e-33
50492160 8.65004711e-05 0 5.922529329e-32
56803680 8.595623393e-05 0 1.073229836e-30
63115200 8.541542079e-05 0 1.221445934e-29
69426720 8.487801023e-05 0 1.035882363e-28
75738240 8.43439809e-05 0 7.084036186e-28
82049760 8.381331153e-05 0 4.089100659e-27
88361280 8.328598098e-05 0 2.052715229e-26
94672800 8.276196825e-05 0 9.152758955e-26
100984320 8.224125247e-05 0 3.682405855e-25
107295840 8.172381289e-05 0 1.353212695e-24
113607360 8.12096289e-05 0 4.586586987e-24
119918880 8.069868001e-05 0 1.445335606e-23
126230400 8.019094588e-05 0 4.262819612e-23
132541920 7.968640627e-05 0 1.183394696e-22
138853440 7.918504108e-05 0 3.107267561e-22
145164960 7.868683035e-05 0 7.74965136e-22
151476480 7.819175422e-05 0 1.84270673e-21
157788000 7.769979296e-05 0 4.191160225e-21
164099520 7.721092696e-05 0 9.145293515e-21
170411040 7.672513672e-05 0 1.919550999e-20
176722560 7.624240284e-05 0 3.884942638e-20
183034080 7.576270601e-05 0 7.598070338e-20
189345600 7.528602695e-05 0 1.438883307e-19
195657120 7.48123464e-05 0 2.643325138e-19
201968640 7.434164505e-05 0 4.718624939e-19
208280160 7.38739034e-05 0 8.197895958e-19
214591680 7.340910167e-05 0 1.388176731e-18
220903200 7.294721955e-05 0 2.294204506e-18
227214720 7.248823595e-05 0 3.705226153e-18
233526240 7.203212864e-05 0 5.854733369e-18
239837760 7.157887374e-05 0 9.061321138e-18
246149280 7.112844518e-05 0 1.375056473e-17
252460800 7.068081391e-05 0 2.047951404e-17
258772320 7.023594702e-05 0 2.996328193e-17
265083840 6.979380669e-05 0 4.310296978e-17
271395360 6.935434895e-05 0 6.101395431e-17
277706880 6.891752228e-05 0 8.505337229e-17
284018400 6.848326607e-05 0 1.168455021e-16
290329920 6.805150893e-05 0 1.58303667e-16
296641440 6.762216691e-05 0 2.116472833e-16
302952960 6.719514156e-05 0 2.794127519e-16
309264480 6.677031813e-05 0 3.644570415e-16
315576000 6.634756359e-05 0 4.699530297e-16
321887520 6.592672487e-05 0 5.99375941e-16
328199040 6.550762714e-05 0 7.564805358e-16
334510560 6.509007231e-05 0 9.452690383e-16
340822080 6.467383777e-05 0 1.169950136e-15
347133600 6.425867543e-05 0 1.434889708e-15
353445120 6.384431102e-05 0 1.744554242e-15
359756640 6.343044391e-05 0 2.103448158e-15
366068160 6.301674718e-05 0 2.516046451e-15
372379680 6.260286825e-05 0 2.986724237e-15
378691200 6.218842989e-05 0 3.519684842e-15
385002720 6.177303166e-05 0 4.118888116e-15
391314240 6.135625181e-05 0 4.787980629e-15
397625760 6.093764963e-05 0 5.530229293e-15
403937280 6.051676809e-05 0 6.348459843e-15
410248800 6.009313691e-05 0 7.245001443e-15
416560320 5.966627589e-05 0 8.22163848e-15
422871840 5.923569856e-05 0 9.279570389e-15
429183360 5.880091593e-05 0 1.041938014e-14
435494880 5.836144047e-05 0 1.164101181e-14
441806400 5.791679014e-05 0 1.294375736e-14
448117920 5.746649246e-05 0 1.432625266e-14
454429440 5.701008856e-05 0 1.578648249e-14
460740960 5.65471371e-05 0 1.732179422e-14
467052480 5.607721812e-05 0 1.892891943e-14
473364000 5.559993667e-05 0 2.060400306e-14
479675520 5.511492621e-05 0 2.234263915e-14
485987040 5.462185175e-05 0 2.413991245e-14
492298560 5.412041275e-05 0 2.599044491e-14
498610080 5.361034557e-05 0 2.788844624e-14
504921600 5.309142575e-05 0 2.982776766e-14
511233120 5.256346976e-05 0 3.180195777e-14
517544640 5.202633649e-05 0 3.380431985e-14
523856160 5.147992837e-05 0 3.582796974e-14
530167680 5.092419206e-05 0 3.786589342e-14
536479200 5.035911884e-05 0 3.991100373e-14
542790720 4.978474458e-05 0 4.195619544e-14
549102240 4.920114945e-05 0 4.39943983e-14
555413760 4.860845725e-05 0 4.601862739e-14
561725280 4.800683445e-05 0 4.802203045e-14
568036800 4.739648895e-05 0 4.999793187e-14
574348320 4.677766863e-05 0 5.193987305e-14
580659840 4.615065956e-05 0 5.384164887e-14
586971360 4.551578409e-05 0 5.569734032e-14
593282880 4.487339878e-05 0 5.750134298e-14
599594400 4.422389209e-05 0 5.924839154e-14
605905920 4.356768198e-05 0 6.09335803e-14
612217440 4.290521348e-05 0 6.255237975e-14
618528960 4.223695603e-05 0 6.410064931e-14
624840480 4.156340092e-05 0 6.557464644e-14
631152000 4.088505864e-05 0 6.697103234e-14
637463520 4.020245616e-05 0 6.828687423e-14
643775040 3.951613433e-05 0 6.951964472e-14
650086560 3.882664525e-05 0 7.066721828e-14
656398080 3.813454967e-05 0 7.172786512e-14
662709600 3.74404145e-05 0 7.270024277e-14
669021120 3.674481037e-05 0 7.358338555e-14
675332640 3.604830926e-05 0 7.437669214e-14
681644160 3.535148225e-05 0 7.507991165e-14
687955680 3.46548974e-05 0 7.569312816e-14
694267200 3.395911768e-05 0 7.62167443e-14
700578720 3.326469907e-05 0 7.665146367e-14
706890240 3.257218876e-05 0 7.699827275e-14
713201760 3.18821235e-05 0 7.72584221e-14
719513280 3.119502805e-05 0 7.743340727e-14
725824800 3.051141379e-05 0 7.752494951e-14
732136320 2.983177742e-05 0 7.753497646e-14
738447840 2.915659986e-05 0 7.746560285e-14
744759360 2.848634517e-05 0 7.731911154e-14
751070880 2.78214597e-05 0 7.70979348e-14
757382400 2.716237131e-05 0 7.680463602e-14
763693920 2.650948872e-05 0 7.644189194e-14
770005440 2.586320094e-05 0 7.601247556e-14
776316960 2.522387688e-05 0 7.551923976e-14
782628480 2.4591865e-05 0 7.496510255e-14
788940000 2.396749309e-05 0 7.435302781e-14
795251520 2.335106812e-05 0 7.368601539e-14
801563040 2.274287623e-05 0 7.296708692e-14
807874560 2.214318274e-05 0 7.219927244e-14
814186080 2.155223226e-05 0 7.138559858e-14
820497600 2.097024888e-05 0 7.052907758e-14
826809120 2.039743643e-05 0 6.963269718e-14
833120640 1.983397877e-05 0 6.869941128e-14
839432160 1.928004017e-05 0 6.773213143e-14
845743680 1.873576573e-05 0 6.673371901e-14
852055200 1.820128181e-05 0 6.570697829e-14
858366720 1.767669655e-05 0 6.465465017e-14
864678240 1.716210037e-05 0 6.35794066e-14
870989760 1.665756657e-05 0 6.24838458e-14
877301280 1.616315189e-05 0 6.137048796e-14
883612800 1.567889712e-05 0 6.024177175e-14
889924320 1.520482771e-05 0 5.910005126e-14
896235840 1.474095442e-05 0 5.794759363e-14
902547360 1.428727397e-05 0 5.678657709e-14
908858880 1.384376967e-05 0 5.561908957e-14
915170400 1.341041209e-05 0 5.444712775e-14
921481920 1.298715971e-05 0 5.327259647e-14
927793440 1.257395958e-05 0 5.209730867e-14
934104960 1.217074797e-05 0 5.092298553e-14
940416480 1.177745098e-05 0 4.975125707e-14
946728000 1.139398523e-05 0 4.858366299e-14
953039520 1.102025845e-05 0 4.742165378e-14
959351040 1.065617009e-05 0 4.626659211e-14
965662560 1.030161193e-05 0 4.511975441e-14
971974080 9.95646866e-06 0 4.398233264e-14
978285600 9.620618457e-06 0 4.28554363e-14
984597120 9.293933531e-06 0 4.174009446e-14
990908640 8.976280661e-06 0 4.063725805e-14
997220160 8.667521717e-06 0 3.954780218e-14
1003531680 8.367514158e-06 0 3.847252857e-14
1009843200 8.076111514e-06 0 3.741216805e-14
1016154720 7.793163849e-06 0 3.636738314e-14
1022466240 7.518518203e-06 0 3.533877062e-14
1028777760 7.25201902e-06 0 3.432686417e-14
1035089280 6.993508546e-06 0 3.333213702e-14
1041400800 6.742827223e-06 0 3.235500459e-14
1047712320 6.499814051e-06 0 3.139582711e-14
1054023840 6.264306936e-06 0 3.045491229e-14
1060335360 6.036143021e-06 0 2.953251784e-14
1066646880 5.815158998e-06 0 2.86288541e-14
1072958400 5.601191398e-06 0 2.774408654e-14
1079269920 5.394076869e-06 0 2.687833821e-14
1085581440 5.193652435e-06 0 2.603169221e-14
1091892960 4.999755734e-06 0 2.520419402e-14
1098204480 4.812225251e-06 0 2.439585382e-14
1104516000 4.630900519e-06 0 2.360664873e-14
1110827520 4.455622319e-06 0 2.2836525e-14
1117139040 4.286232859e-06 0 2.20854001e-14
1123450560 4.122575942e-06 0 2.135316478e-14
1129762080 3.964497111e-06 0 2.063968499e-14
1136073600 3.811843796e-06 0 1.994480385e-14
1142385120 3.664465437e-06 0 1.926834338e-14
1148696640 3.522213597e-06 0 1.86101063e-14
1155008160 3.384942069e-06 0 1.796987772e-14
1161319680 3.252506965e-06 0 1.734742666e-14
1167631200 3.124766796e-06 0 1.674250765e-14
1173942720 3.001582551e-06 0 1.615486217e-14
1180254240 2.882817751e-06 0 1.558421999e-14
1186565760 2.768338506e-06 0 1.503030055e-14
1192877280 2.658013563e-06 0 1.449281414e-14
1199188800 2.551714339e-06 0 1.397146313e-14
1205500320 2.449314951e-06 0 1.346594307e-14
1211811840 2.350692242e-06 0 1.297594371e-14
1218123360 2.255725795e-06 0 1.250115004e-14
1224434880 2.164297941e-06 0 1.204124319e-14
1230746400 2.076293768e-06 0 1.15959013e-14
1237057920 1.991601116e-06 0 1.116480036e-14
1243369440 1.910110574e-06 0 1.074761494e-14
1249680960 1.831715466e-06 0 1.034401894e-14
1255992480 1.756311838e-06 0 9.953686212e-15
1262304000 1.683798442e-06 0 9.576291205e-15
