#Time flux(top) flux(bottom)
1 -4.783214976e-09 4.75321287e-09
2.250000002 -4.783217398e-09 4.753212825e-09
3.812500008 -4.783220425e-09 4.753212796e-09
5.765625009 -4.783224208e-09 4.753212773e-09
8.207031249 -4.783228938e-09 4.753212753e-09
11.25878903 -4.78323485e-09 4.753212734e-09
15.07348623 -4.783242239e-09 4.753212714e-09
19.84185768 -4.783251477e-09 4.753212695e-09
25.80232192 -4.783263023e-09 4.753212676e-09
33.25290227 -4.783277457e-09 4.753212657e-09
42.56612755 -4.783295498e-09 4.753212638e-09
54.20765941 -4.78331805e-09 4.75321262e-09
68.75957424 -4.78334624e-09 4.753212601e-09
86.94946744 -4.783381478e-09 4.753212583e-09
109.6868329 -4.783425525e-09 4.753212565e-09
138.1085406 -4.783480583e-09 4.753212547e-09
173.6356751 -4.783549406e-09 4.753212529e-09
218.0445933 -4.783635435e-09 4.753212513e-09
273.5557411 -4.783742972e-09 4.753212496e-09
342.9446758 -4.783877392e-09 4.753212481e-09
429.6808516 -4.784045417e-09 4.753212468e-09
538.101095 -4.784255449e-09 4.753212455e-09
673.6264176 -4.784517989e-09 4.753212445e-09
843.0330995 -4.784846164e-09 4.753212436e-09
1054.791407 -4.785256383e-09 4.753212429e-09
1319.489432 -4.785769156e-09 4.753212425e-09
1650.362181 -4.786410123e-09 4.753212423e-09
2063.952776 -4.787211332e-09 4.753212424e-09
2580.94102 -4.788212842e-09 4.753212429e-09
3227.175907 -4.78946473e-09 4.753212438e-09
4034.969516 -4.791029589e-09 4.753212452e-09
5044.713566 -4.792985665e-09 4.75321247e-09
6306.893628 -4.795430762e-09 4.753212493e-09
7884.616217 -4.798487131e-09 4.753212522e-09
9856.769454 -4.80230759e-09 4.753212556e-09
12321.94884 -4.80708315e-09 4.753212595e-09
15403.42308 -4.813052586e-09 4.75321264e-09
19255.28072 -4.820514399e-09 4.753212689e-09
24070.14913 -4.82984173e-09 4.75321274e-09
30088.80711 -4.841501021e-09 4.753212793e-09
37612.12957 -4.856075214e-09 4.753212844e-09
47016.37111 -4.87429305e-09 4.753212891e-09
58771.39661 -4.897065142e-09 4.753212932e-09
73465.39445 -4.925530193e-09 4.753212964e-09
91832.55426 -4.961111375e-09 4.753212986e-09
114792.0314 -5.005588058e-09 4.753213e-09
143490.5537 -5.061183592e-09 4.753213006e-09
179364.9945 -5.130678508e-09 4.753213006e-09
224208.0454 -5.217548539e-09 4.753213004e-09
280261.8591 -5.326136078e-09 4.753213002e-09
350338.9602 -5.461881086e-09 4.753213e-09
437943.0238 -5.631581202e-09 4.753213e-09
547472.144 -5.843740494e-09 4.753213e-09
684364.7507 -6.108945255e-09 4.753213e-09
855451.1328 -6.440399366e-09 4.753213e-09
1069355.052 -6.854734832e-09 4.753213e-09
1336734.951 -7.372703609e-09 4.753213e-09
1671184.892 -8.020406801e-09 4.753213e-09
2089600.114 -8.830657702e-09 4.753213e-09
2613172.601 -9.844446659e-09 4.753213e-09
3266771.367 -1.111134559e-08 4.753213e-09
3998121.659 -1.260185979e-08 4.753213e-09
4769782.598 -1.421943524e-08 4.753213e-09
5557001.216 -1.589713747e-08 4.753213e-09
6344219.835 -1.759158324e-08 4.753213e-09
7121953.892 -1.92758215e-08 4.753213e-09
7881316.278 -2.093008024e-08 4.753213e-09
8617403.189 -2.253951736e-08 4.753213e-09
9326227.621 -2.409456437e-08 4.753213e-09
10007205.38 -2.559030163e-08 4.753213e-09
10657865.64 -2.702344126e-08 4.753213e-09
11278659.52 -2.839180961e-08 4.753213e-09
11868413.71 -2.969462944e-08 4.753213e-09
12425016.03 -3.092836483e-08 4.753213e-09
12953396.27 -3.209604816e-08 4.753213e-09
13454861.7 -3.320439188e-08 4.753213e-09
13930742.15 -3.425623412e-08 4.753213001e-09
14383465.41 -3.525561891e-08 4.753213002e-09
14814130.22 -3.620634158e-08 4.753213003e-09
15223833.47 -3.711076513e-08 4.753213005e-09
15614480.76 -3.797212089e-08 4.753213007e-09
15986225.76 -3.87926251e-08 4.753213011e-09
16341464.7 -3.957502203e-08 4.753213016e-09
16680318.09 -4.032202025e-08 4.753213023e-09
17007674.66 -4.103901082e-08 4.753213033e-09
17321017.69 -4.172854654e-08 4.753213045e-09
17622468.15 -4.239020151e-08 4.753213062e-09
17911497.52 -4.302568957e-08 4.753213083e-09
18189495.23 -4.363593723e-08 4.753213109e-09
18456863.62 -4.422287284e-08 4.753213142e-09
18714737.4 -4.478815061e-08 4.753213183e-09
18963414.03 -4.533331186e-08 4.753213234e-09
19203515.6 -4.585934627e-08 4.753213295e-09
19435603.51 -4.636752751e-08 4.753213368e-09
19660186.1 -4.685900686e-08 4.753213456e-09
19877987.8 -4.733511107e-08 4.75321356e-09
20089150.77 -4.766633882e-08 4.753213683e-09
20294294.27 -4.691600622e-08 4.753213828e-09
20493303.91 -4.595039734e-08 4.753213996e-09
20687155.64 -4.501176694e-08 4.753214193e-09
20875707.52 -4.409812236e-08 4.753214419e-09
21059613.37 -4.320824064e-08 4.753214681e-09
21238912.35 -4.234046609e-08 4.753214981e-09
21413825.35 -4.149417737e-08 4.753215325e-09
21584721.21 -4.066796553e-08 4.753215718e-09
21751620.45 -3.986090032e-08 4.753216164e-09
21915151.07 -3.907143224e-08 4.753216672e-09
22075011.8 -3.829878066e-08 4.753217247e-09
22231773.9 -3.754230054e-08 4.753217898e-09
22385419.73 -3.680066914e-08 4.753218634e-09
22536068.23 -3.607364446e-08 4.753219463e-09
22683954.84 -3.536037979e-08 4.753220398e-09
22829176.83 -3.466008024e-08 4.75322145e-09
22971826.44 -3.397229299e-08 4.753222635e-09
23112102.33 -3.329632303e-08 4.753223969e-09
23249972.87 -3.263177132e-08 4.75322547e-09
23385829.92 -3.197777716e-08 4.753227165e-09
23519426.12 -3.133399533e-08 4.753229077e-09
23651128.04 -3.0700141e-08 4.753231243e-09
23780891.74 -3.007544332e-08 4.753233704e-09
23908772.08 -2.945987622e-08 4.753236513e-09
24035002.35 -2.885275125e-08 4.753239743e-09
24159447.19 -2.825383444e-08 4.753243483e-09
24282240.87 -2.766312838e-08 4.753247864e-09
24403592.91 -2.707981166e-08 4.753253078e-09
24523372.18 -2.650369703e-08 4.753259387e-09
24641777.46 -2.593462285e-08 4.753267203e-09
24758682.94 -2.537241476e-08 4.753277137e-09
24874430.18 -2.481655732e-08 4.753290204e-09
24988816.58 -2.426671852e-08 4.753307959e-09
25102092.42 -2.37227844e-08 4.75333305e-09
25214062.91 -2.318462239e-08 4.753369752e-09
25325108.62 -2.265178867e-08 4.753425615e-09
25434967.04 -2.212400115e-08 4.753513198e-09
25543866 -2.160134265e-08 4.753654893e-09
25651754.77 -2.108339009e-08 4.753889818e-09
25758848.28 -2.056975113e-08 4.754288995e-09
25864898.89 -2.006050391e-08 4.75497755e-09
25970307.55 -1.955528218e-08 4.756190553e-09
26074829.89 -1.905371183e-08 4.758350334e-09
26178665.81 -1.855589908e-08 4.762250914e-09
26281762.69 -1.806149206e-08 4.76936203e-09
26384311.82 -1.757015945e-08 4.782475792e-09
26486198.96 -1.708171716e-08 4.806793733e-09
26587787.84 -1.659556914e-08 4.8523845e-09
26688961.83 -1.611112499e-08 4.938030914e-09
26790076.78 -1.562781314e-08 5.099736905e-09
26891428.41 -1.514407688e-08 5.404902599e-09
26993678.01 -1.465762972e-08 5.978711417e-09
27097898.68 -1.416432777e-08 7.04508718e-09
27188423.34 -1.369903923e-08 8.53690309e-09
27281583.22 -1.32601773e-08 1.090239907e-08
27372775.63 -1.281971999e-08 1.416347095e-08
27465785.99 -1.237961993e-08 1.839866173e-08
27560170.13 -1.193189411e-08 2.32549016e-08
27658482.46 -1.147150073e-08 2.828494194e-08
27763185.69 -1.098645284e-08 3.295910412e-08
27879248.23 -1.045899586e-08 3.69088378e-08
28013822.71 -9.860170056e-09 3.994765537e-08
28179992.93 -9.14162622e-09 4.203776504e-08
28387755.94 -8.248219217e-09 4.32163511e-08
28647381.12 -7.131528189e-09 4.365487919e-08
28971912.59 -5.735852145e-09 4.354300641e-08
29377192.42 -3.992175782e-09 4.299882381e-08
29796413.08 -2.022266572e-09 4.224254355e-08
30113957.08 -5.249971167e-09 4.160781467e-08
30230877.96 -4.128291435e-08 4.136816629e-08
30258966.83 -5.862305743e-08 4.131030325e-08
30289495.8 -6.563252799e-08 4.124705207e-08
30304227.61 -7.104477335e-08 4.121644985e-08
30322642.78 -7.50084614e-08 4.117806938e-08
30345662.36 -7.996319395e-08 4.11298975e-08
30370976.35 -8.574288137e-08 4.107669667e-08
30397145.59 -9.18992021e-08 4.102146529e-08
30423592.32 -9.819097488e-08 4.096542052e-08
30449846.6 -1.044929167e-07 4.090956907e-08
30475732.12 -1.1072775e-07 4.085430275e-08
30501068.28 -1.168527953e-07 4.080002664e-08
30525805.43 -1.228405193e-07 4.074686705e-08
30549875.05 -1.286767911e-07 4.069499074e-08
30573273.3 -1.343529587e-07 4.064442435e-08
30595990.75 -1.398674347e-07 4.059520523e-08
30618048.56 -1.452216225e-07 4.05473029e-08
30639383.99 -1.504105494e-07 4.05008683e-08
30660123.71 -1.554418606e-07 4.045563824e-08
30680178.18 -1.603199952e-07 4.041181986e-08
30699642.46 -1.650456135e-07 4.03692158e-08
30718565.05 -1.696358829e-07 4.032772887e-08
30736925.29 -1.740941316e-07 4.028741254e-08
30754778.16 -1.78424465e-07 4.024815341e-08
30772134.86 -1.826347962e-07 4.02099334e-08
30788978.49 -1.867244421e-07 4.017279589e-08
30805405.15 -1.907028741e-07 4.013653415e-08
30821416.75 -1.945818139e-07 4.010114859e-08
30837004.93 -1.983604897e-07 4.006666203e-08
30852202.4 -2.020418119e-07 4.003300605e-08
30867076.46 -2.056377393e-07 4.000003486e-08
30881585.59 -2.091513561e-07 3.996784364e-08
30895781.71 -2.125839059e-07 3.993632e-08
30909659.78 -2.159409934e-07 3.990547773e-08
30923255.52 -2.192262888e-07 3.987523968e-08
30936577.05 -2.224450333e-07 3.984558994e-08
30949594.94 -2.255946785e-07 3.981659598e-08
30962388.22 -2.286811571e-07 3.978808354e-08
30974944.87 -2.317124801e-07 3.976008097e-08
30987250.13 -2.346854462e-07 3.973262268e-08
30999372.69 -2.376065044e-07 3.970555669e-08
31011248.22 -2.404761754e-07 3.967902793e-08
31022928.39 -2.432929462e-07 3.965292212e-08
31034393.79 -2.460606743e-07 3.962728377e-08
31045723.12 -2.487864486e-07 3.960193777e-08
31056848.78 -2.514715971e-07 3.957703627e-08
31067822.68 -2.541142435e-07 3.955246392e-08
31078620.52 -2.567176892e-07 3.952827591e-08
31089272.64 -2.592826574e-07 3.950440497e-08
31099772.47 -2.618119898e-07 3.948086653e-08
31110138.26 -2.64307083e-07 3.945762025e-08
31120323.4 -2.667645452e-07 3.943477134e-08
31130398.55 -2.691872527e-07 3.941216178e-08
31140338.48 -2.715806399e-07 3.938984869e-08
31150178.22 -2.739458762e-07 3.936775393e-08
31159858.86 -2.762801066e-07 3.93460102e-08
31169458.6 -2.785856381e-07 3.93244423e-08
31178901.55 -2.808627465e-07 3.930322112e-08
31188277.9 -2.831131422e-07 3.928214436e-08
31197505.1 -2.85337739e-07 3.926139792e-08
31206677.65 -2.875379665e-07 3.924076964e-08
31215708.38 -2.897146993e-07 3.922045589e-08
31224696.31 -2.918693548e-07 3.920023419e-08
31233548.47 -2.940026574e-07 3.9180314e-08
31242324.22 -2.961105881e-07 3.9160562e-08
31250986.9 -2.981958608e-07 3.914106098e-08
31259604.9 -3.002622697e-07 3.912165718e-08
31268112.1 -3.023100868e-07 3.910249968e-08
31276550.38 -3.043364136e-07 3.908349441e-08
31284893.53 -3.063431226e-07 3.906470061e-08
31293163.88 -3.083297502e-07 3.904606814e-08
31301390.27 -3.103024164e-07 3.90275322e-08
31309532.88 -3.122598078e-07 3.900918267e-08
31317613.86 -3.141998111e-07 3.89909698e-08
31325618.53 -3.161233193e-07 3.897292684e-08
31333559.89 -3.180301314e-07 3.895502463e-08
31341432.67 -3.199211722e-07 3.893727517e-08
31349244.55 -3.21796731e-07 3.891966127e-08
31356994.33 -3.236575818e-07 3.89021858e-08
31364687.2 -3.255042005e-07 3.888483715e-08
31372323.28 -3.273372235e-07 3.886761515e-08
31379867.81 -3.29152508e-07 3.885059836e-08
31387369.7 -3.309517464e-07 3.883367651e-08
31394807.73 -3.327382497e-07 3.881689761e-08
31402203.99 -3.345121214e-07 3.880021189e-08
31409549.02 -3.362748725e-07 3.87836408e-08
31416853.95 -3.380267021e-07 3.876715931e-08
31424075.64 -3.397637829e-07 3.875086482e-08
31431268.06 -3.414874099e-07 3.873463566e-08
31438406.87 -3.432011262e-07 3.871852681e-08
31445480.38 -3.449006227e-07 3.870256474e-08
31452519.61 -3.465882122e-07 3.868667948e-08
31459515.9 -3.482665679e-07 3.867089069e-08
31466447.72 -3.499320798e-07 3.865524696e-08
31473352.29 -3.515866241e-07 3.863966442e-08
31480216.92 -3.532331328e-07 3.862417173e-08
31487021.4 -3.548676735e-07 3.860881455e-08
31493803.15 -3.564923037e-07 3.859350849e-08
31500515.21 -3.58105882e-07 3.85783596e-08
31507213.13 -3.597094353e-07 3.856324254e-08
31513873.18 -3.613067705e-07 3.854821088e-08
31520481.26 -3.628933626e-07 3.853329656e-08
31527072.28 -3.644716988e-07 3.85184208e-08
31533597.68 -3.660401492e-07 3.85036932e-08
31540117.78 -3.6760012e-07 3.848897771e-08
31546567.24 -3.691510092e-07 3.847442182e-08
31553018.43 -3.706936577e-07 3.845986224e-08
31559397.55 -3.722278949e-07 3.844546555e-08
31565749.24 -3.737502347e-07 3.843113104e-08
31572071.85 -3.752658169e-07 3.841686248e-08
31578348.04 -3.767723708e-07 3.8402699e-08
31584616.3 -3.782724249e-07 3.838855383e-08
31590827.45 -3.797647014e-07 3.837453791e-08
31597009.42 -3.812466602e-07 3.836058828e-08
31603171.93 -3.827228027e-07 3.834668301e-08
31609288.78 -3.841911583e-07 3.833288127e-08
31615372.7 -3.856501157e-07 3.831915434e-08
31621443.67 -3.871035879e-07 3.830545715e-08
31627468.81 -3.885500313e-07 3.829186395e-08
31633464.99 -3.899875297e-07 3.827833668e-08
31639450.5 -3.914202897e-07 3.826483407e-08
31645392.29 -3.928465463e-07 3.825143074e-08
31651306.73 -3.942643042e-07 3.823808974e-08
31657181.75 -3.956740781e-07 3.822483834e-08
31663056.36 -3.970790889e-07 3.821158857e-08
31668884.8 -3.984785294e-07 3.819844364e-08
31674692.12 -3.99869924e-07 3.818534707e-08
31680460.05 -4.012540824e-07 3.81723401e-08
31686201.8 -4.026303999e-07 3.815939291e-08
31691938.66 -4.040030032e-07 3.814645754e-08
31697638.03 -4.05370538e-07 3.813360751e-08
31703315.87 -4.067310143e-07 3.812080685e-08
31708959.81 -4.080848626e-07 3.810808343e-08
31714578.5 -4.094316386e-07 3.809541778e-08
31720167.15 -4.10771803e-07 3.808282071e-08
31725760.26 -4.12108908e-07 3.807021447e-08
31731315.88 -4.134420637e-07 3.805769361e-08
31736855.95 -4.147688777e-07 3.804520869e-08
31742363.57 -4.16089951e-07 3.803279784e-08
31747850.17 -4.174046302e-07 3.802043526e-08
31753308.47 -4.187134126e-07 3.800813739e-08
31758744.38 -4.200161326e-07 3.799589094e-08
31764154.76 -4.213131224e-07 3.798370293e-08
31769542.79 -4.226043874e-07 3.797156626e-08
31774907.28 -4.238901648e-07 3.795948358e-08
31780249.97 -4.251705198e-07 3.794745101e-08
31785570.51 -4.2644562e-07 3.793546929e-08
31790870.11 -4.277155675e-07 3.792353576e-08
31796148.75 -4.289805038e-07 3.791165043e-08
31801407.09 -4.302405072e-07 3.789981183e-08
31806645.61 -4.314957138e-07 3.788801887e-08
31811864.8 -4.327462376e-07 3.787627051e-08
31817064.94 -4.339921713e-07 3.786456605e-08
31822246.81 -4.352336439e-07 3.785290376e-08
31827410.55 -4.364707634e-07 3.784128336e-08
31832556.75 -4.377036166e-07 3.78297035e-08
31837685.84 -4.389323267e-07 3.781816321e-08
31842798.24 -4.401569958e-07 3.780666155e-08
31847894.53 -4.413777428e-07 3.779519724e-08
31852974.96 -4.425946665e-07 3.77837697e-08
31858040.24 -4.43807882e-07 3.777237736e-08
31863090.61 -4.450175028e-07 3.776101966e-08
31868126.61 -4.462236223e-07 3.77496954e-08
31873118.65 -4.474227666e-07 3.773847111e-08
31878104.03 -4.486158576e-07 3.772726293e-08
31883064.69 -4.49805197e-07 3.771611143e-08
31888017.03 -4.509905852e-07 3.770497979e-08
31892951.92 -4.521728913e-07 3.769388851e-08
31897877.27 -4.533519702e-07 3.768281982e-08
31902788.94 -4.545282732e-07 3.7671783e-08
31907661.75 -4.556982934e-07 3.766083468e-08
31912528.91 -4.568629907e-07 3.76499002e-08
31917375.17 -4.580245129e-07 3.763901384e-08
31922214.86 -4.591827505e-07 3.762814339e-08
31927040.66 -4.603385422e-07 3.761730531e-08
31931831.66 -4.614885106e-07 3.760654657e-08
31936617.33 -4.626336811e-07 3.759580094e-08
31941384.55 -4.637760077e-07 3.758509794e-08
31946146.5 -4.649154967e-07 3.757440795e-08
31950896.73 -4.660529554e-07 3.756374543e-08
31955612.84 -4.671849329e-07 3.755316069e-08
31960325.77 -4.683124499e-07 3.754258427e-08
31965021.98 -4.69437587e-07 3.753204658e-08
31969715.04 -4.705603474e-07 3.752151714e-08
31974369.88 -4.716781608e-07 3.751107465e-08
31979026.26 -4.727915887e-07 3.750062988e-08
31983664.65 -4.739030497e-07 3.749022668e-08
31988303.04 -4.750123588e-07 3.747982468e-08
31992902.44 -4.761170064e-07 3.74695113e-08
31997505.88 -4.772174747e-07 3.745919008e-08
32002092.1 -4.783163666e-07 3.744890867e-08
32006652.56 -4.79410118e-07 3.743868623e-08
32011208.8 -4.80500285e-07 3.742847443e-08
32015754.32 -4.815886665e-07 3.741828787e-08
32020271.49 -4.826723744e-07 3.740816607e-08
32024787.55 -4.837525607e-07 3.739804793e-08
32029292 -4.84831226e-07 3.738795705e-08
32033770.14 -4.859053563e-07 3.737792629e-08
32038247.21 -4.869762132e-07 3.736789915e-08
32042714.16 -4.880457314e-07 3.735789589e-08
32047154.77 -4.8911089e-07 3.734795282e-08
32051595.74 -4.901729415e-07 3.733801018e-08
32056027.33 -4.912339141e-07 3.732808974e-08
32060432.76 -4.92290638e-07 3.731822907e-08
32064839.93 -4.933444416e-07 3.730836573e-08
32069238.67 -4.943974449e-07 3.729852248e-08
32073610.85 -4.954462633e-07 3.72887399e-08
32077986.55 -4.964923269e-07 3.727895064e-08
32082326.85 -4.975345797e-07 3.726924178e-08
32086675.7 -4.98573621e-07 3.725951504e-08
32091012.64 -4.9961226e-07 3.724981615e-08
32095327.18 -5.006467968e-07 3.724016857e-08
32099644.39 -5.016789735e-07 3.723051626e-08
32103928.32 -5.027074906e-07 3.722093954e-08
32108221.46 -5.037331301e-07 3.721134348e-08
32112478.03 -5.047554967e-07 3.720183036e-08
32116746.28 -5.057748876e-07 3.719229235e-08
32121002.96 -5.067942914e-07 3.718278144e-08
32125239.65 -5.078099213e-07 3.717331639e-08
32129480.2 -5.088236225e-07 3.716384395e-08
32133688.75 -5.098339579e-07 3.71544442e-08
32137908.61 -5.108418205e-07 3.71450204e-08
32142091.99 -5.11846673e-07 3.71356793e-08
32146290.11 -5.128489259e-07 3.712630648e-08
32150450.37 -5.138484138e-07 3.711701943e-08
32154626.77 -5.148453038e-07 3.710769755e-08
32158765.17 -5.15839581e-07 3.709846168e-08
32162920.48 -5.168313361e-07 3.708918931e-08
32167037.97 -5.178205902e-07 3.708000253e-08
32171173.01 -5.188074205e-07 3.707077782e-08
32175270.39 -5.197918466e-07 3.706163831e-08
32179386.06 -5.207739567e-07 3.705245923e-08
32183464.03 -5.217537452e-07 3.704336544e-08
32187561.11 -5.227313109e-07 3.703423023e-08
32191620.44 -5.237066471e-07 3.702518042e-08
32195699.89 -5.246798753e-07 3.701608695e-08
32199741.13 -5.256509408e-07 3.700707986e-08
32203803.79 -5.266199986e-07 3.699802623e-08
32207827.68 -5.27586982e-07 3.698906021e-08
32211849.16 -5.285490403e-07 3.698010076e-08
32215863.23 -5.295099245e-07 3.697115902e-08
32219859.24 -5.304677622e-07 3.696225872e-08
32223862.48 -5.314243057e-07 3.695334349e-08
32227838.79 -5.323784937e-07 3.694448946e-08
32231830.42 -5.333312923e-07 3.69356025e-08
32235789.83 -5.34282071e-07 3.692678847e-08
32239744.48 -5.352284278e-07 3.691798622e-08
32243695.59 -5.361737922e-07 3.690919305e-08
32247627.81 -5.371164742e-07 3.690044311e-08
32251570.47 -5.380581457e-07 3.689167113e-08
32255485.71 -5.389977868e-07 3.688296135e-08
32259394.38 -5.399333634e-07 3.687426736e-08
32263302.23 -5.408680564e-07 3.686557639e-08
32267190.61 -5.418003225e-07 3.685692991e-08
32271091.55 -5.427317626e-07 3.684825667e-08
32274964.75 -5.436613882e-07 3.68396463e-08
32278832.41 -5.445870339e-07 3.683104942e-08
32282700.52 -5.455120707e-07 3.682245273e-08
32286549.19 -5.464348364e-07 3.681390043e-08
32290387.47 -5.473540347e-07 3.680537239e-08
32294229.61 -5.482724528e-07 3.679683693e-08
32298050.92 -5.49188842e-07 3.678834893e-08
32301863.89 -5.501017423e-07 3.677988063e-08
32305679.89 -5.510140084e-07 3.677140675e-08
32309476.37 -5.519243028e-07 3.67629774e-08
32313264.45 -5.528312575e-07 3.675456788e-08
32317056.46 -5.537376784e-07 3.674615077e-08
32320829.11 -5.546422547e-07 3.673777782e-08
32324593.8 -5.55543563e-07 3.67294237e-08
32328363.14 -5.564444758e-07 3.672106041e-08
32332113.26 -5.573436468e-07 3.671274093e-08
32335855.68 -5.582395983e-07 3.670443969e-08
32339603.79 -5.591353094e-07 3.669612699e-08
32343332.56 -5.600293881e-07 3.668785834e-08
32347053.96 -5.609202735e-07 3.667960717e-08
32350782.15 -5.618110895e-07 3.667134212e-08
32354490.8 -5.627003796e-07 3.666312155e-08
32358192.31 -5.635864806e-07 3.665491792e-08
32361877.15 -5.644697352e-07 3.66467524e-08
32365573.7 -5.653523944e-07 3.663856211e-08
32369247.87 -5.662337789e-07 3.66304225e-08
32372918.11 -5.67112018e-07 3.662229277e-08
32376570.75 -5.679876818e-07 3.661420315e-08
