#Time Total flux(top) flux(bottom)
0.1 1e-09 -1e-08 0
0.114142 1.14142e-09 -1e-08 0
0.13182 1.3182e-09 -1e-08 0
0.147663 1.47663e-09 -1e-08 0
0.166225 1.66225e-09 -1e-08 0
0.185172 1.85172e-09 -1e-08 0
0.206454 2.06454e-09 -1e-08 0
0.229159 2.29159e-09 -1e-08 0
0.254242 2.54242e-09 -1e-08 0
0.281449 2.81449e-09 -1e-08 0
0.311347 3.11347e-09 -1e-08 0
0.343999 3.43999e-09 -1e-08 0
0.379838 3.79839e-09 -1e-08 0
0.419101 4.19101e-09 -1e-08 0
0.462203 4.62203e-09 -1e-08 0
0.509496 5.09496e-09 -1e-08 0
0.561436 5.61436e-09 -1e-08 0
0.618477 6.18478e-09 -1e-08 0
0.68115 6.8115e-09 -1e-08 0
0.750016 7.50016e-09 -1e-08 0
0.825706 8.25706e-09 -1e-08 0
0.908905 9.08905e-09 -1e-08 0
1.00037 1.00037e-08 -1e-08 0
1.10093 1.10093e-08 -1e-08 0
1.21151 1.21151e-08 -1e-08 0
1.3331 1.3331e-08 -1e-08 0
1.46682 1.46682e-08 -1e-08 0
1.61387 1.61387e-08 -1e-08 0
1.7756 1.7756e-08 -1e-08 0
1.95348 1.95348e-08 -1e-08 0
2.14912 2.14912e-08 -1e-08 0
2.3643 2.3643e-08 -1e-08 0
2.60099 2.60099e-08 -1e-08 0
2.86132 2.86133e-08 -1e-08 0
3.14768 3.14769e-08 -1e-08 0
3.46267 3.46268e-08 -1e-08 0
3.80915 3.80916e-08 -1e-08 0
4.19027 4.19028e-08 -1e-08 0
4.60951 4.60952e-08 -1e-08 0
5.07067 5.07069e-08 -1e-08 0
5.57796 5.57798e-08 -1.00001e-08 0
6.13599 6.13601e-08 -1.00001e-08 0
6.74985 6.74987e-08 -1.00001e-08 0
7.42511 7.42514e-08 -1.00001e-08 0
8.16794 8.16797e-08 -1.00001e-08 0
8.98509 8.98513e-08 -1.00001e-08 0
9.884 9.88405e-08 -1.00001e-08 0
10.8729 1.08729e-07 -1.00001e-08 0
11.9607 1.19608e-07 -1.00001e-08 0
13.1575 1.31576e-07 -1.00001e-08 0
14.474 1.44741e-07 -1.00001e-08 0
15.9223 1.59225e-07 -1.00002e-08 0
17.5157 1.75158e-07 -1.00002e-08 0
19.2686 1.92688e-07 -1.00002e-08 0
21.1971 2.11973e-07 -1.00002e-08 0
23.3187 2.3319e-07 -1.00002e-08 0
25.653 2.56533e-07 -1.00002e-08 0
28.2211 2.82215e-07 -1.00003e-08 0
31.0467 3.10471e-07 -1.00003e-08 0
34.1555 3.41561e-07 -1.00003e-08 0
37.576 3.75767e-07 -1.00004e-08 0
41.3397 4.13406e-07 -1.00004e-08 0
45.481 4.5482e-07 -1.00004e-08 0
50.038 5.00392e-07 -1.00005e-08 0
55.0525 5.5054e-07 -1.00005e-08 0
60.5708 6.05726e-07 -1.00006e-08 0
66.6436 6.66458e-07 -1.00006e-08 0
73.327 7.33297e-07 -1.00007e-08 0
80.6828 8.0686e-07 -1.00008e-08 0
88.779 8.87829e-07 -1.00008e-08 0
97.6907 9.76954e-07 -1.00009e-08 0
107.501 1.07506e-06 -1.0001e-08 0
118.3 1.18307e-06 -1.00011e-08 0
130.19 1.30199e-06 -1.00012e-08 0
143.282 1.43293e-06 -1.00014e-08 0
157.699 1.57711e-06 -1.00015e-08 0
173.576 1.73591e-06 -1.00017e-08 0
191.063 1.91081e-06 -1.00018e-08 0
210.326 2.10348e-06 -1.0002e-08 0
231.549 2.31576e-06 -1.00022e-08 0
254.935 2.54967e-06 -1.00024e-08 0
280.709 2.80748e-06 -1.00027e-08 0
312.927 3.12976e-06 -1.0003e-08 0
353.199 3.53262e-06 -1.00033e-08 0
403.539 4.0362e-06 -1.00038e-08 0
466.462 4.66571e-06 -1.00044e-08 0
545.116 5.45265e-06 -1.00051e-08 0
643.43 6.43637e-06 -1.00059e-08 0
766.321 7.66615e-06 -1.0007e-08 0
919.931 9.20355e-06 -1.00084e-08 0
1111.95 1.11257e-05 -1.00102e-08 0
1351.95 1.35287e-05 -1.00123e-08 0
1651.94 1.6533e-05 -1.0015e-08 0
2026.97 2.02903e-05 -1.00184e-08 0
2495.73 2.49884e-05 -1.00226e-08 0
3081.8 3.08655e-05 -1.00279e-08 0
3814.29 3.82157e-05 -1.00345e-08 0
4729.91 4.74109e-05 -1.00427e-08 0
5873.89 5.89115e-05 -1.0053e-08 0
7304.29 7.33097e-05 -1.00659e-08 0
9061.28 9.10233e-05 -1.00818e-08 0
11096.1 0.000111576 -1.01008e-08 0
13473.2 0.00013564 -1.01228e-08 0
16206 0.000163373 -1.01484e-08 0
19369.3 0.000195569 -1.01779e-08 0
23014.8 0.000232796 -1.02119e-08 0
27244.2 0.000276153 -1.02513e-08 0
32157.1 0.000326741 -1.0297e-08 0
37883.9 0.000386015 -1.03502e-08 0
44565.3 0.000455583 -1.04122e-08 2.79362e-301
52461.5 0.000538376 -1.04851e-08 8.45466e-277
61751.1 0.000636577 -1.05711e-08 4.51527e-254
71133.5 0.000736635 -1.06644e-08 8.44855e-251
82191.5 0.000855692 -1.07666e-08 2.95645e-230
94428.9 0.000988873 -1.08831e-08 3.5586e-217
108803 0.00114722 -1.10162e-08 3.59933e-198
123413 0.00131028 -1.11611e-08 1.27041e-194
140601 0.00150485 -1.13201e-08 1.49449e-177
159699 0.0017245 -1.15015e-08 3.22138e-166
180194 0.00196429 -1.16995e-08 1.73325e-158
203617 0.00224347 -1.19191e-08 7.05189e-146
227750 0.00253685 -1.21568e-08 7.67881e-142
254379 0.00286733 -1.24106e-08 3.01384e-133
284204 0.0032459 -1.26929e-08 9.91921e-124
315325 0.0036504 -1.29976e-08 2.70024e-119
349559 0.00410655 -1.33244e-08 5.9981e-112
385695 0.00460075 -1.36763e-08 3.29091e-107
426648 0.00517663 -1.40617e-08 9.25595e-99
447884 0.00548183 -1.43727e-08 1.92239e-98
474175 0.00586596 -1.46103e-08 5.36943e-98
494399 0.00616614 -1.48429e-08 1.06079e-97
519679 0.00654712 -1.50704e-08 2.77174e-97
540563 0.00686666 -1.53012e-08 5.65581e-97
564743 0.00724211 -1.55265e-08 1.38097e-96
587652 0.00760319 -1.5762e-08 3.13407e-96
611907 0.00799123 -1.59978e-08 7.68669e-96
636163 0.00838515 -1.62404e-08 1.88526e-95
662152 0.00881374 -1.64916e-08 5.15913e-95
688140 0.00924908 -1.67515e-08 1.41183e-94
716491 0.0097317 -1.70232e-08 4.58786e-94
744842 0.0102224 -1.73067e-08 1.49086e-93
773193 0.0107211 -1.75902e-08 4.84466e-93
801544 0.0112278 -1.78737e-08 1.57431e-92
829894 0.0117426 -1.81572e-08 5.11585e-92
858245 0.0122654 -1.84407e-08 1.66243e-91
886596 0.0127962 -1.87242e-08 5.4022e-91
914947 0.0133351 -1.90077e-08 1.75548e-90
943298 0.013882 -1.92912e-08 5.70457e-90
971649 0.014437 -1.95747e-08 1.85374e-89
1e+06 0.015 -1.98582e-08 6.02385e-89
1.03226e+06 0.0156348 -1.96774e-08 2.83701e-88
1.06452e+06 0.0162487 -1.90323e-08 1.33611e-87
1.09916e+06 0.0168849 -1.83632e-08 8.67602e-87
1.13253e+06 0.0174749 -1.76831e-08 4.6808e-86
1.16867e+06 0.0180889 -1.6988e-08 3.98022e-85
1.20331e+06 0.0186529 -1.62802e-08 2.57533e-84
1.24125e+06 0.019243 -1.55544e-08 3.40773e-83
1.27738e+06 0.0197782 -1.48137e-08 2.81709e-82
1.31753e+06 0.0203423 -1.40509e-08 8.12624e-81
1.35544e+06 0.0208454 -1.32703e-08 8.73533e-80
1.39573e+06 0.0213485 -1.24883e-08 1.79766e-78
1.43601e+06 0.0218192 -1.16826e-08 3.0057e-77
1.4763e+06 0.0222573 -1.08769e-08 4.27835e-76
1.51658e+06 0.0226631 -1.00712e-08 5.34111e-75
1.55687e+06 0.0230363 -9.26554e-09 5.9696e-74
1.60118e+06 0.0234094 -8.41956e-09 2.14275e-72
1.64549e+06 0.0237432 -7.53329e-09 4.62793e-71
1.68981e+06 0.0240378 -6.64702e-09 7.57162e-70
1.73412e+06 0.0242931 -5.76075e-09 1.02236e-68
1.77843e+06 0.0245091 -4.87448e-09 1.19148e-67
1.82275e+06 0.0246858 -3.98821e-09 1.23202e-66
1.86706e+06 0.0248233 -3.10194e-09 1.1517e-65
1.91137e+06 0.0249215 -2.21567e-09 9.86591e-65
1.95569e+06 0.0249804 -1.3294e-09 7.82509e-64
2e+06 0.025 -4.43135e-10 5.79307e-63
2.05e+06 0.0250125 -2.5e-10 1.14201e-61
2.05841e+06 0.0250171 -5.42035e-10 1.35884e-61
2.0649e+06 0.0250211 -6.1654e-10 1.54982e-61
2.07257e+06 0.0250263 -6.87332e-10 1.81352e-61
2.08017e+06 0.0250321 -7.63665e-10 2.11904e-61
2.08868e+06 0.0250393 -8.4426e-10 2.52714e-61
2.09838e+06 0.0250484 -9.35319e-10 3.09606e-61
2.1084e+06 0.0250587 -1.03388e-09 3.82142e-61
2.12013e+06 0.0250722 -1.14263e-09 4.91301e-61
2.13171e+06 0.0250867 -1.25918e-09 6.29198e-61
2.14506e+06 0.0251052 -1.38385e-09 8.42013e-61
2.15802e+06 0.0251248 -1.51541e-09 1.11519e-60
2.17305e+06 0.0251497 -1.65536e-09 1.55785e-60
2.18731e+06 0.0251754 -1.80182e-09 2.13197e-60
2.20356e+06 0.0252072 -1.95438e-09 3.0754e-60
2.21918e+06 0.0252402 -2.11373e-09 4.3594e-60
2.23653e+06 0.0252797 -2.27857e-09 6.47754e-60
2.25429e+06 0.0253233 -2.4541e-09 9.73069e-60
2.27248e+06 0.0253712 -2.63382e-09 1.47921e-59
2.29162e+06 0.0254252 -2.82049e-09 2.31064e-59
2.31186e+06 0.0254863 -3.01741e-09 3.72674e-59
2.33337e+06 0.0255557 -3.22613e-09 6.24504e-59
2.3542e+06 0.0256273 -3.43781e-09 1.02411e-58
2.37647e+06 0.0257086 -3.65332e-09 1.75529e-58
2.39956e+06 0.0257982 -3.88013e-09 3.08695e-58
2.42358e+06 0.0258971 -4.11569e-09 5.59178e-58
2.44864e+06 0.0260064 -4.36109e-09 1.0484e-57
2.4737e+06 0.026122 -4.61171e-09 1.96271e-57
2.50002e+06 0.0262501 -4.86859e-09 3.83492e-57
2.52779e+06 0.0263928 -5.13905e-09 7.89415e-57
2.55557e+06 0.0265433 -5.41682e-09 1.62123e-56
2.5852e+06 0.0267123 -5.70385e-09 3.57002e-56
2.61483e+06 0.0268901 -6.00013e-09 7.83672e-56
2.64446e+06 0.0270766 -6.29642e-09 1.71482e-55
2.67678e+06 0.0272901 -6.60617e-09 4.18657e-55
2.7091e+06 0.0275141 -6.92939e-09 1.01716e-54
2.74142e+06 0.0277485 -7.25262e-09 2.45918e-54
2.77374e+06 0.0279934 -7.57584e-09 5.91618e-54
2.80607e+06 0.0282487 -7.89906e-09 1.4162e-53
2.84485e+06 0.0285689 -8.2546e-09 4.63582e-53
2.88364e+06 0.0289041 -8.64247e-09 1.49678e-52
2.92243e+06 0.0292544 -9.03034e-09 4.76723e-52
2.96121e+06 0.0296197 -9.4182e-09 1.49793e-51
3e+06 0.03 -9.80607e-09 4.64398e-51
3.04e+06 0.0304 -1e-08 1.51636e-50
3.04821e+06 0.0304821 -1e-08 1.76779e-50
3.05435e+06 0.0305435 -1e-08 1.97829e-50
3.06203e+06 0.0306203 -1e-08 2.28218e-50
3.06936e+06 0.0306936 -1e-08 2.61376e-50
3.07753e+06 0.0307753 -1e-08 3.04369e-50
3.08713e+06 0.0308713 -1e-08 3.6502e-50
3.09674e+06 0.0309674 -1e-08 4.37702e-50
3.10701e+06 0.0310701 -1e-08 5.32e-50
3.11846e+06 0.0311846 -1e-08 6.62969e-50
3.13006e+06 0.0313006 -1e-08 8.28696e-50
3.14324e+06 0.0314324 -1e-08 1.07211e-49
3.15622e+06 0.0315622 -1e-08 1.38049e-49
3.17077e+06 0.0317077 -1e-08 1.84084e-49
3.18506e+06 0.0318506 -1e-08 2.43981e-49
3.20104e+06 0.0320104 -1e-08 3.36079e-49
3.21671e+06 0.0321671 -1e-08 4.59331e-49
3.23374e+06 0.0323374 -1e-08 6.48093e-49
3.25156e+06 0.0325156 -1e-08 9.31634e-49
3.26938e+06 0.0326938 -1e-08 1.33834e-48
3.2886e+06 0.032886 -1e-08 1.98959e-48
3.30836e+06 0.0330836 -1e-08 2.99556e-48
3.32932e+06 0.0332932 -1e-08 4.6477e-48
3.35028e+06 0.0335028 -1e-08 7.20323e-48
3.37269e+06 0.0337269 -1e-08 1.15883e-47
3.39509e+06 0.0339509 -1e-08 1.86175e-47
3.41929e+06 0.0341929 -1e-08 3.1381e-47
3.44348e+06 0.0344348 -1e-08 5.28017e-47
3.46878e+06 0.0346878 -1e-08 9.15004e-47
3.49534e+06 0.0349534 -1e-08 1.6419e-46
3.5219e+06 0.035219 -1e-08 2.93901e-46
3.55002e+06 0.0355002 -1e-08 5.50046e-46
3.57815e+06 0.0357815 -1e-08 1.02629e-45
3.60828e+06 0.0360828 -1e-08 2.03301e-45
3.63841e+06 0.0363841 -1e-08 4.0112e-45
3.66854e+06 0.0366854 -1e-08 7.88273e-45
3.70169e+06 0.0370169 -1e-08 1.70449e-44
3.73484e+06 0.0373484 -1e-08 3.66399e-44
3.76798e+06 0.0376798 -1e-08 7.8301e-44
3.80113e+06 0.0380113 -1e-08 1.66357e-43
3.83427e+06 0.0383427 -1e-08 3.51387e-43
3.86742e+06 0.0386742 -1e-08 7.37925e-43
3.90056e+06 0.0390056 -1e-08 1.54075e-42
3.93371e+06 0.0393371 -1e-08 3.19855e-42
3.96685e+06 0.0396685 -1e-08 6.60223e-42
4e+06 0.04 -1e-08 1.35505e-41
4.04e+06 0.0404 -1e-08 3.50781e-41
4.088e+06 0.04088 -1e-08 1.28093e-40
4.136e+06 0.04136 -1e-08 4.51472e-40
4.19771e+06 0.0419771 -1e-08 3.95712e-39
4.23994e+06 0.0423994 -1e-08 9.92712e-39
4.29061e+06 0.0429061 -1e-08 3.44782e-38
4.33495e+06 0.0433495 -1e-08 9.01338e-38
4.38245e+06 0.0438245 -1e-08 2.60818e-37
4.42995e+06 0.0442995 -1e-08 7.39585e-37
4.47746e+06 0.0447746 -1e-08 2.05649e-36
4.52971e+06 0.0452971 -1e-08 6.73084e-36
4.58197e+06 0.0458197 -1e-08 2.13571e-35
4.63422e+06 0.0463422 -1e-08 6.58163e-35
4.68648e+06 0.0468648 -1e-08 1.97308e-34
4.73873e+06 0.0473873 -1e-08 5.76241e-34
4.79098e+06 0.0479098 -1e-08 1.64165e-33
4.84324e+06 0.0484324 -1e-08 4.56762e-33
4.89549e+06 0.0489549 -1e-08 1.24251e-32
4.94775e+06 0.0494775 -1e-08 3.30778e-32
5e+06 0.05 -1e-08 8.62575e-32
5.0625e+06 0.050625 -1e-08 3.10549e-31
5.12109e+06 0.0512109 -1e-08 9.30062e-31
5.18387e+06 0.0518387 -1e-08 3.09862e-30
5.24665e+06 0.0524665 -1e-08 9.89223e-30
5.31514e+06 0.0531514 -1e-08 3.68454e-29
5.38362e+06 0.0538362 -1e-08 1.29373e-28
5.45211e+06 0.0545211 -1e-08 4.31189e-28
5.5206e+06 0.055206 -1e-08 1.3715e-27
5.58908e+06 0.0558908 -1e-08 4.18136e-27
5.65757e+06 0.0565757 -1e-08 1.22629e-26
5.72606e+06 0.0572606 -1e-08 3.47001e-26
5.79454e+06 0.0579454 -1e-08 9.49832e-26
5.86303e+06 0.0586303 -1e-08 2.52061e-25
5.93151e+06 0.0593151 -1e-08 6.4975e-25
6e+06 0.06 -1e-08 1.62971e-24
6.08333e+06 0.0608333 -1e-08 5.6287e-24
6.16667e+06 0.0616667 -1e-08 1.82207e-23
6.25e+06 0.0625 -1e-08 5.57411e-23
6.34375e+06 0.0634375 -1e-08 2.07105e-22
6.4375e+06 0.064375 -1e-08 7.07604e-22
6.53125e+06 0.0653125 -1e-08 2.25261e-21
6.625e+06 0.06625 -1e-08 6.7454e-21
6.71875e+06 0.0671875 -1e-08 1.91374e-20
6.8125e+06 0.068125 -1e-08 5.17337e-20
6.90625e+06 0.0690625 -1e-08 1.33863e-19
7e+06 0.07 -1e-08 3.32802e-19
7.11111e+06 0.0711111 -1e-08 1.04486e-18
7.22222e+06 0.0722222 -1e-08 3.04687e-18
7.33333e+06 0.0733333 -1e-08 8.33855e-18
7.44444e+06 0.0744444 -1e-08 2.15849e-17
7.55556e+06 0.0755556 -1e-08 5.31692e-17
7.66667e+06 0.0766667 -1e-08 1.25236e-16
7.83333e+06 0.0783333 -1e-08 5.99861e-16
8e+06 0.08 -1e-08 2.28787e-15
8.16667e+06 0.0816667 -1e-08 7.47e-15
8.33333e+06 0.0833333 -1e-08 2.16777e-14
8.5e+06 0.085 -1e-08 5.7209e-14
8.66667e+06 0.0866666 -1e-08 1.39439e-13
8.83333e+06 0.0883332 -1e-08 3.17406e-13
9e+06 0.0899998 -1e-08 6.80472e-13
9.2e+06 0.0919995 -1e-08 1.68719e-12
9.4e+06 0.0939987 -1e-08 3.81633e-12
9.6e+06 0.0959971 -1e-08 7.99447e-12
9.8e+06 0.097994 -1e-08 1.56775e-11
1e+07 0.0999882 -1e-08 2.9016e-11
