#Time Total flux(top) flux(bottom)
0.1 1e-09 -1e-08 0
0.110627 1.10627e-09 -1e-08 0
0.120395 1.20395e-09 -1e-08 0
0.132605 1.32605e-09 -1e-08 0
0.147868 1.47868e-09 -1e-08 0
0.166946 1.66946e-09 -1e-08 0
0.190794 1.90794e-09 -1e-08 0
0.220604 2.20604e-09 -1e-08 0
0.257866 2.57866e-09 -1e-08 0
0.304444 3.04444e-09 -1e-08 0
0.362667 3.62667e-09 -1e-08 0
0.435445 4.35445e-09 -1e-08 0
0.526417 5.26418e-09 -1e-08 0
0.640133 6.40134e-09 -1e-08 0
0.782278 7.82278e-09 -1e-08 0
0.959959 9.5996e-09 -1e-08 0
1.18206 1.18206e-08 -1e-08 0
1.45969 1.45969e-08 -1e-08 0
1.80672 1.80672e-08 -1e-08 0
2.24051 2.24051e-08 -1e-08 0
2.78275 2.78276e-08 -1e-08 0
3.46055 3.46056e-08 -1e-08 0
4.3078 4.30781e-08 -1e-08 0
5.36686 5.36688e-08 -1.00001e-08 0
6.69069 6.69071e-08 -1.00001e-08 0
8.34547 8.3455e-08 -1.00001e-08 0
10.414 1.0414e-07 -1.00001e-08 0
12.9995 1.29996e-07 -1.00001e-08 0
16.2315 1.62317e-07 -1.00002e-08 0
20.2715 2.02717e-07 -1.00002e-08 0
25.3215 2.53218e-07 -1.00002e-08 0
31.634 3.16345e-07 -1.00003e-08 0
39.5246 3.95254e-07 -1.00004e-08 0
49.3879 4.93891e-07 -1.00005e-08 0
61.717 6.17188e-07 -1.00006e-08 0
77.1284 7.71312e-07 -1.00007e-08 0
96.3925 9.63969e-07 -1.00009e-08 0
120.473 1.20479e-06 -1.00011e-08 0
150.573 1.50584e-06 -1.00014e-08 0
188.198 1.88215e-06 -1.00018e-08 0
235.231 2.35256e-06 -1.00022e-08 0
294.02 2.9406e-06 -1.00028e-08 0
367.506 3.67569e-06 -1.00034e-08 0
459.367 4.59466e-06 -1.00043e-08 0
574.191 5.74345e-06 -1.00054e-08 0
709.522 7.09758e-06 -1.00066e-08 0
866.102 8.66453e-06 -1.00081e-08 0
1044.9 1.04541e-05 -1.00098e-08 0
1247.82 1.24855e-05 -1.00117e-08 0
1476.52 1.47754e-05 -1.00139e-08 0
1732.95 1.73436e-05 -1.00163e-08 0
2018.9 2.02082e-05 -1.0019e-08 0
2336.33 2.33889e-05 -1.00221e-08 0
2687.25 2.69065e-05 -1.00254e-08 0
3073.8 3.07826e-05 -1.00292e-08 0
3498.03 3.5038e-05 -1.00332e-08 0
3962.38 3.9698e-05 -1.00377e-08 0
4469.27 4.47873e-05 -1.00426e-08 0
5021.11 5.03307e-05 -1.00479e-08 0
5620.86 5.63586e-05 -1.00537e-08 0
6271.21 6.2899e-05 -1.006e-08 0
6975.48 6.99864e-05 -1.00668e-08 0
7737 7.76552e-05 -1.00741e-08 0
8559.77 8.59472e-05 -1.00821e-08 0
9447.37 9.48998e-05 -1.00907e-08 0
10404.4 0.000104562 -1.00999e-08 0
11436.3 0.000114989 -1.01099e-08 0
12548.3 0.000126237 -1.01207e-08 0
13746.7 0.000138372 -1.01323e-08 0
15037.6 0.00015146 -1.01448e-08 0
16428.8 0.000165583 -1.01583e-08 0
17930.4 0.000180848 -1.01728e-08 0
19551 0.000197347 -1.01886e-08 0
21304.9 0.000215231 -1.02055e-08 0
23205.3 0.000234643 -1.0224e-08 0
25270.4 0.000255778 -1.02439e-08 0
27521.5 0.000278862 -1.02657e-08 0
29989.7 0.00030423 -1.02896e-08 0
33078.9 0.000336063 -1.03195e-08 0
36660.1 0.000373081 -1.03543e-08 0
40498.1 0.000412888 -1.03895e-08 0
44598.6 0.000455569 -1.04281e-08 0
48921.7 0.000500741 -1.047e-08 0
53494.1 0.000548717 -1.05144e-08 0
58398.3 0.000600399 -1.05624e-08 0
62388.2 0.000642618 -1.0601e-08 0
67375.5 0.000695609 -1.06492e-08 0
71213.4 0.000736563 -1.06922e-08 0
75454.5 0.000781988 -1.07296e-08 0
79734.8 0.000828018 -1.07782e-08 0
84406.2 0.000878471 -1.08229e-08 0
89382.2 0.00093245 -1.08724e-08 0
94802.6 0.000991524 -1.09247e-08 0
99669.2 0.0010448 -1.09718e-08 0
104844 0.0011017 -1.10213e-08 0
110204 0.00116093 -1.10777e-08 0
115982 0.0012251 -1.11339e-08 0
122164 0.00129412 -1.11948e-08 0
127901 0.00135851 -1.12501e-08 0
133957 0.00142682 -1.13087e-08 0
140279 0.00149851 -1.13741e-08 0
147048 0.00157573 -1.14402e-08 0
153414 0.00164875 -1.15025e-08 0
160133 0.00172625 -1.15675e-08 0
167131 0.00180747 -1.16395e-08 0
174635 0.00189508 -1.17128e-08 0
181750 0.00197866 -1.17825e-08 0
189189 0.00206658 -1.18544e-08 0
196985 0.00215931 -1.19343e-08 0
205263 0.00225844 -1.20154e-08 0
213132 0.00235329 -1.20923e-08 0
221415 0.00245378 -1.21728e-08 0
230163 0.00256066 -1.22623e-08 0
238531 0.00266361 -1.23439e-08 0
247385 0.00277329 -1.24301e-08 0
256563 0.00288781 -1.25238e-08 0
265520 0.00300037 -1.26109e-08 0
274937 0.00311956 -1.27035e-08 0
284735 0.00324451 -1.28026e-08 0
294272 0.00336705 -1.28956e-08 0
304354 0.00349756 -1.29945e-08 0
314894 0.00363509 -1.31013e-08 0
325119 0.00376957 -1.32008e-08 0
335832 0.00391154 -1.33056e-08 0
346209 0.00405017 -1.3411e-08 0
357106 0.00419688 -1.35175e-08 0
368586 0.00435273 -1.3634e-08 0
379861 0.00450708 -1.37441e-08 0
391562 0.00466856 -1.38582e-08 0
403042 0.00482832 -1.3974e-08 0
414981 0.00499586 -1.40913e-08 0
427699 0.00517589 -1.42196e-08 0
440140 0.00535356 -1.43417e-08 0
453160 0.00554111 -1.4468e-08 5.92879e-323
465877 0.00572592 -1.45966e-08 4.80726e-321
479230 0.0059217 -1.47272e-08 5.09171e-317
492250 0.00611429 -1.48589e-08 3.90088e-315
505973 0.00631912 -1.4993e-08 4.12917e-311
519325 0.00652021 -1.51282e-08 2.93105e-309
533462 0.00673506 -1.5266e-08 3.91399e-305
547184 0.00694549 -1.54051e-08 2.56689e-303
561791 0.00717155 -1.55472e-08 5.28478e-299
575927 0.00739233 -1.56907e-08 3.17946e-297
591072 0.00763109 -1.58377e-08 1.25156e-292
605677 0.00786348 -1.59861e-08 6.83295e-291
620281 0.00809798 -1.61271e-08 3.6755e-289
635470 0.0083441 -1.62817e-08 1.19034e-286
650659 0.00859255 -1.64336e-08 1.94962e-284
666538 0.00885474 -1.65894e-08 1.15694e-280
682417 0.00911943 -1.67482e-08 3.24762e-278
699132 0.00940074 -1.69119e-08 1.70648e-273
715847 0.00968482 -1.70791e-08 5.71352e-271
732562 0.00997165 -1.7242e-08 1.00736e-268
749277 0.0102613 -1.74092e-08 1.22959e-266
765992 0.0105536 -1.75763e-08 1.16001e-264
782706 0.0108488 -1.77435e-08 8.97724e-263
800814 0.0111718 -1.79246e-08 5.37243e-258
818922 0.011498 -1.81056e-08 1.65323e-255
837030 0.0118274 -1.82798e-08 2.6863e-253
855138 0.01216 -1.84608e-08 3.0299e-251
873245 0.012496 -1.86419e-08 2.64764e-249
891353 0.0128352 -1.8823e-08 1.90189e-247
909461 0.0131777 -1.90041e-08 1.16543e-245
927569 0.0135234 -1.91851e-08 6.24788e-244
945677 0.0138725 -1.93662e-08 2.98466e-242
963784 0.0142248 -1.95473e-08 1.28827e-240
981892 0.0145804 -1.97284e-08 5.0793e-239
1e+06 0.0149393 -1.99095e-08 1.8454e-237
1.02041e+06 0.0153414 -1.95013e-08 6.12501e-233
1.03051e+06 0.0155373 -1.92993e-08 1.81234e-232
1.04205e+06 0.0157604 -1.93631e-08 6.52977e-232
1.04953e+06 0.0159044 -1.91103e-08 1.40912e-231
1.05885e+06 0.0160817 -1.89384e-08 3.77679e-231
1.06657e+06 0.016227 -1.87435e-08 8.36662e-231
1.07546e+06 0.0163929 -1.85841e-08 2.12791e-230
1.08659e+06 0.0165986 -1.83453e-08 7.24115e-230
1.09928e+06 0.0168298 -1.81033e-08 3.1026e-229
1.11508e+06 0.0171136 -1.78097e-08 2.43759e-228
1.13147e+06 0.0174029 -1.74975e-08 2.22852e-227
1.15035e+06 0.01773 -1.7151e-08 5.69077e-226
1.17011e+06 0.018065 -1.67617e-08 3.22217e-224
1.19139e+06 0.0184174 -1.6361e-08 1.02842e-220
1.21385e+06 0.01878 -1.59206e-08 4.20274e-216
1.23767e+06 0.0191537 -1.54593e-08 1.18822e-210
1.26226e+06 0.019528 -1.49793e-08 1.26805e-206
1.2877e+06 0.0199028 -1.44841e-08 1.43356e-202
1.31409e+06 0.020278 -1.39642e-08 2.2139e-198
1.34152e+06 0.0206537 -1.3424e-08 5.37367e-194
1.37015e+06 0.02103 -1.28608e-08 2.31633e-189
1.40014e+06 0.0214069 -1.22715e-08 2.02152e-184
1.43014e+06 0.0217661 -1.16836e-08 6.1925e-182
1.4618e+06 0.0221262 -1.1064e-08 2.39626e-177
1.49346e+06 0.0224665 -1.04308e-08 6.76228e-175
1.52511e+06 0.0227869 -9.81431e-09 9.98767e-173
1.55903e+06 0.0231083 -9.1359e-09 3.96321e-168
1.59295e+06 0.0234067 -8.45749e-09 1.03808e-165
1.62688e+06 0.0236825 -7.8017e-09 1.42803e-163
1.6608e+06 0.0239356 -7.12329e-09 1.35641e-161
1.69472e+06 0.0241657 -6.44488e-09 9.93261e-160
1.73288e+06 0.0243971 -5.68167e-09 7.31916e-154
1.77104e+06 0.0245994 -4.91846e-09 1.92829e-151
1.79966e+06 0.0247326 -4.38845e-09 1.31467e-150
1.82192e+06 0.0248253 -3.94325e-09 4.9269e-150
1.8516e+06 0.0249321 -3.25424e-09 3.81887e-149
1.86396e+06 0.0249704 -2.9433e-09 7.43662e-149
1.87908e+06 0.0250132 -2.7152e-09 1.70591e-148
1.88664e+06 0.0250325 -2.39092e-09 2.53978e-148
1.8926e+06 0.0250465 -2.29907e-09 3.47191e-148
1.89826e+06 0.0250589 -2.11045e-09 4.6675e-148
1.9025e+06 0.0250677 -2.00975e-09 5.8232e-148
1.90693e+06 0.0250764 -1.91797e-09 7.3391e-148
1.91065e+06 0.0250833 -1.82938e-09 8.91117e-148
1.91535e+06 0.0250917 -1.73726e-09 1.13922e-147
1.9214e+06 0.0251018 -1.60924e-09 1.5639e-147
1.92926e+06 0.0251139 -1.46184e-09 2.36666e-147
1.9381e+06 0.0251261 -1.29842e-09 3.77856e-147
1.94842e+06 0.0251385 -1.11023e-09 6.5459e-147
1.95702e+06 0.0251474 -9.4812e-10 1.0311e-146
1.96561e+06 0.0251549 -7.90919e-10 1.62414e-146
1.97421e+06 0.0251609 -6.01786e-10 2.55824e-146
1.97937e+06 0.0251637 -4.98623e-10 3.34995e-146
1.98624e+06 0.0251667 -3.61072e-10 4.80736e-146
1.99083e+06 0.025168 -2.34983e-10 6.10737e-146
1.99541e+06 0.0251689 -1.60476e-10 7.7589e-146
2e+06 0.0251694 -4.58504e-11 9.85699e-146
2.00403e+06 0.0251697 -8.61729e-11 1.21634e-145
2.00591e+06 0.0251698 -1.04929e-10 1.34094e-145
2.0074e+06 0.02517 -5.38441e-11 1.44911e-145
2.00859e+06 0.02517 -7.65145e-11 1.54145e-145
2.01008e+06 0.0251702 -9.32933e-11 1.66526e-145
2.011e+06 0.0251703 -1.04047e-10 1.74711e-145
2.01215e+06 0.0251704 -1.14099e-10 1.85509e-145
2.0136e+06 0.0251706 -1.31335e-10 1.99947e-145
2.0154e+06 0.0251708 -1.48215e-10 2.19598e-145
2.01765e+06 0.0251712 -1.69306e-10 2.46899e-145
2.01969e+06 0.0251715 -1.87838e-10 2.7444e-145
2.02221e+06 0.025172 -2.10855e-10 3.1299e-145
2.0247e+06 0.0251726 -2.36831e-10 3.56237e-145
2.02781e+06 0.0251734 -2.65428e-10 4.18759e-145
2.03046e+06 0.0251741 -2.92111e-10 4.8064e-145
2.03319e+06 0.0251749 -3.16409e-10 5.54257e-145
2.03596e+06 0.0251759 -3.46318e-10 6.39932e-145
2.03941e+06 0.0251771 -3.80422e-10 7.66114e-145
2.04306e+06 0.0251786 -4.16829e-10 9.26693e-145
2.04602e+06 0.0251798 -4.42899e-10 1.08067e-144
2.04907e+06 0.0251812 -4.72392e-10 1.26646e-144
2.05247e+06 0.0251829 -5.0997e-10 1.51244e-144
2.05672e+06 0.0251852 -5.51989e-10 1.88762e-144
2.06069e+06 0.0251874 -5.8982e-10 2.32078e-144
2.06413e+06 0.0251895 -6.20023e-10 2.77621e-144
2.06792e+06 0.0251919 -6.59341e-10 3.38216e-144
2.07229e+06 0.0251949 -7.05714e-10 4.24939e-144
2.0771e+06 0.0251984 -7.52041e-10 5.46152e-144
2.08154e+06 0.0252019 -7.93476e-10 6.88393e-144
2.08604e+06 0.0252055 -8.36345e-10 8.70661e-144
2.09095e+06 0.0252098 -8.87331e-10 1.12533e-143
2.0963e+06 0.0252146 -9.40479e-10 1.48822e-143
2.10202e+06 0.0252202 -9.95617e-10 2.00735e-143
2.10805e+06 0.0252264 -1.05372e-09 2.7521e-143
2.11395e+06 0.0252327 -1.11093e-09 3.74918e-143
2.11998e+06 0.0252396 -1.16966e-09 5.14031e-143
2.12618e+06 0.0252471 -1.23224e-09 7.11159e-143
2.13265e+06 0.0252552 -1.29636e-09 9.98443e-143
2.13948e+06 0.0252643 -1.36381e-09 1.42879e-142
2.14631e+06 0.0252739 -1.43073e-09 2.04459e-142
2.15331e+06 0.0252841 -1.49892e-09 2.95224e-142
2.16048e+06 0.0252951 -1.57067e-09 4.30372e-142
2.16798e+06 0.0253072 -1.64479e-09 6.38298e-142
2.17561e+06 0.02532 -1.72023e-09 9.53722e-142
2.18339e+06 0.0253337 -1.7964e-09 1.43613e-141
2.19132e+06 0.0253483 -1.875e-09 2.18029e-141
2.19957e+06 0.0253641 -1.9568e-09 3.36864e-141
2.20817e+06 0.0253813 -2.04211e-09 5.30629e-141
2.21669e+06 0.025399 -2.12563e-09 8.31616e-141
2.22549e+06 0.0254181 -2.21187e-09 1.32391e-140
2.2345e+06 0.0254384 -2.30239e-09 2.13136e-140
2.24361e+06 0.0254598 -2.39209e-09 3.45147e-140
2.25295e+06 0.0254826 -2.48445e-09 5.65871e-140
2.26253e+06 0.0255068 -2.57969e-09 9.40073e-140
2.27249e+06 0.025533 -2.67822e-09 1.59567e-139
2.28232e+06 0.0255599 -2.77534e-09 2.6882e-139
2.29243e+06 0.0255884 -2.87448e-09 4.59891e-139
2.30284e+06 0.0256189 -2.9792e-09 7.99909e-139
2.3134e+06 0.0256509 -3.08345e-09 1.40361e-138
2.32413e+06 0.0256845 -3.18924e-09 2.48576e-138
2.33521e+06 0.0257205 -3.29925e-09 4.49022e-138
2.34629e+06 0.0257576 -3.40923e-09 8.11067e-138
2.35776e+06 0.0257974 -3.52216e-09 1.49762e-137
2.36943e+06 0.0258392 -3.63893e-09 2.79823e-137
2.38111e+06 0.0258824 -3.75376e-09 5.22811e-137
2.39325e+06 0.0259286 -3.87406e-09 1.00272e-136
2.40538e+06 0.0259764 -3.99542e-09 1.92304e-136
2.41777e+06 0.0260266 -4.117e-09 3.742e-136
2.43043e+06 0.0260796 -4.24358e-09 7.3955e-136
2.44308e+06 0.0261341 -4.36888e-09 1.46151e-135
2.45603e+06 0.0261915 -4.49705e-09 2.93799e-135
2.46899e+06 0.0262506 -4.62657e-09 5.90566e-135
2.4826e+06 0.0263145 -4.76126e-09 1.23426e-134
2.49622e+06 0.0263802 -4.89741e-09 2.57933e-134
2.51021e+06 0.0264497 -5.03403e-09 5.51218e-134
2.52462e+06 0.0265233 -5.17809e-09 1.20727e-133
2.53902e+06 0.0265989 -5.32025e-09 2.64388e-133
2.55389e+06 0.0266791 -5.4669e-09 5.95433e-133
2.56828e+06 0.0267588 -5.6108e-09 1.30251e-132
2.58317e+06 0.0268434 -5.75735e-09 2.93567e-132
2.59806e+06 0.0269302 -5.90861e-09 6.61575e-132
2.61352e+06 0.0270228 -6.06073e-09 1.54387e-131
2.62898e+06 0.0271177 -6.21532e-09 3.60228e-131
2.64511e+06 0.0272192 -6.37377e-09 8.76212e-131
2.66124e+06 0.0273233 -6.53509e-09 2.13092e-130
2.67737e+06 0.02743 -6.69304e-09 5.18143e-130
2.6935e+06 0.0275393 -6.85436e-09 1.25967e-129
2.70963e+06 0.0276512 -7.01567e-09 3.06183e-129
2.72671e+06 0.0277724 -7.18648e-09 7.90199e-129
2.74379e+06 0.0278966 -7.35728e-09 2.03889e-128
2.76087e+06 0.0280237 -7.52334e-09 5.25955e-128
2.77795e+06 0.0281537 -7.69414e-09 1.35644e-127
2.79646e+06 0.0282978 -7.87918e-09 3.83896e-127
2.81496e+06 0.0284453 -8.06422e-09 1.08614e-126
2.83347e+06 0.0285961 -8.24214e-09 3.07193e-126
2.85197e+06 0.0287504 -8.42718e-09 8.68537e-126
2.87047e+06 0.028908 -8.61222e-09 2.45477e-125
2.89206e+06 0.0290963 -8.82809e-09 8.61876e-125
2.91005e+06 0.0292567 -9.00799e-09 2.35244e-124
2.92804e+06 0.0294202 -9.17247e-09 6.41853e-124
2.95203e+06 0.0296433 -9.43032e-09 2.71677e-123
2.97601e+06 0.0298724 -9.67019e-09 1.14862e-122
3e+06 0.0301069 -9.88007e-09 4.85038e-122
3.02041e+06 0.0303085 -9.88007e-09 1.55622e-121
3.03365e+06 0.0304393 -9.88007e-09 3.16172e-121
3.04875e+06 0.0305894 -1e-08 7.17128e-121
3.05807e+06 0.0306827 -1e-08 1.16911e-120
3.0697e+06 0.0307989 -1e-08 2.16512e-120
3.0791e+06 0.0308929 -1e-08 3.54268e-120
3.0909e+06 0.031011 -1e-08 6.6252e-120
3.10557e+06 0.0311576 -1e-08 1.46229e-119
3.12382e+06 0.0313401 -1e-08 4.03889e-119
3.14629e+06 0.0315648 -1e-08 1.50162e-118
3.17068e+06 0.0318087 -1e-08 6.50576e-118
3.19743e+06 0.0320762 -1e-08 3.4755e-117
3.22609e+06 0.0323629 -1e-08 2.25056e-116
3.25586e+06 0.0326605 -1e-08 1.64431e-115
3.28686e+06 0.0329706 -1e-08 1.39382e-114
3.31928e+06 0.0332947 -1e-08 1.42783e-113
3.35332e+06 0.0336351 -1e-08 1.8842e-112
3.38735e+06 0.0339755 -1e-08 2.40515e-111
3.42339e+06 0.0343358 -1e-08 4.45198e-110
3.45943e+06 0.0346962 -1e-08 7.64865e-109
3.49804e+06 0.0350823 -1e-08 2.41507e-107
3.53665e+06 0.0354685 -1e-08 6.28031e-106
3.56239e+06 0.0357259 -1e-08 2.64216e-105
3.58974e+06 0.0359994 -1e-08 1.25756e-104
3.61539e+06 0.0362558 -1e-08 5.20105e-104
3.64103e+06 0.0365122 -1e-08 2.14154e-103
3.66667e+06 0.0367686 -1e-08 8.77815e-103
3.69445e+06 0.0370464 -1e-08 4.23367e-102
3.72222e+06 0.0373242 -1e-08 2.02808e-101
3.75e+06 0.0376019 -1e-08 9.6486e-101
3.77778e+06 0.0378797 -1e-08 4.55841e-100
3.80556e+06 0.0381575 -1e-08 2.13842e-99
3.83333e+06 0.0384353 -1e-08 9.96009e-99
3.86111e+06 0.0387131 -1e-08 4.60565e-98
3.88889e+06 0.0389908 -1e-08 2.11418e-97
3.91667e+06 0.0392686 -1e-08 9.63352e-97
3.94444e+06 0.0395464 -1e-08 4.35703e-96
3.97222e+06 0.0398242 -1e-08 1.95584e-95
4e+06 0.0401019 -1e-08 8.71335e-95
4.02941e+06 0.0403961 -1e-08 4.37531e-94
4.06536e+06 0.0407555 -1e-08 4.15675e-93
4.09998e+06 0.0411017 -1e-08 3.26346e-92
4.13748e+06 0.0414767 -1e-08 3.51759e-91
4.17342e+06 0.0418361 -1e-08 2.98565e-90
4.21099e+06 0.0422118 -1e-08 2.9668e-89
4.24685e+06 0.0425705 -1e-08 2.32779e-88
4.28451e+06 0.042947 -1e-08 2.15458e-87
4.32217e+06 0.0433236 -1e-08 1.91337e-86
4.35982e+06 0.0437002 -1e-08 1.63418e-85
4.39748e+06 0.0440768 -1e-08 1.3452e-84
4.43514e+06 0.0444533 -1e-08 1.06925e-83
4.4728e+06 0.0448299 -1e-08 8.22049e-83
4.51335e+06 0.0452354 -1e-08 8.28621e-82
4.55078e+06 0.0456098 -1e-08 5.8078e-81
4.59162e+06 0.0460182 -1e-08 5.5113e-80
4.63246e+06 0.0464265 -1e-08 4.97532e-79
4.6733e+06 0.0468349 -1e-08 4.28905e-78
4.71414e+06 0.0472433 -1e-08 3.54212e-77
4.75497e+06 0.0476517 -1e-08 2.81004e-76
4.79581e+06 0.0480601 -1e-08 2.14652e-75
4.83665e+06 0.0484684 -1e-08 1.58208e-74
4.87749e+06 0.0488768 -1e-08 1.12716e-73
4.91832e+06 0.0492852 -1e-08 7.77513e-73
4.95916e+06 0.0496936 -1e-08 5.20032e-72
5e+06 0.0501019 -1e-08 3.37693e-71
5.04167e+06 0.0505186 -1e-08 2.2679e-70
5.08333e+06 0.0509353 -1e-08 1.47681e-69
5.12698e+06 0.0513718 -1e-08 1.08458e-68
5.17063e+06 0.0518083 -1e-08 7.66816e-68
5.21429e+06 0.0522448 -1e-08 5.23051e-67
5.25794e+06 0.0526813 -1e-08 3.44857e-66
5.30159e+06 0.0531178 -1e-08 2.20141e-65
5.34524e+06 0.0535543 -1e-08 1.36262e-64
5.38889e+06 0.0539908 -1e-08 8.18922e-64
5.43254e+06 0.0544273 -1e-08 4.7844e-63
5.47619e+06 0.0548638 -1e-08 2.72023e-62
5.51984e+06 0.0553004 -1e-08 1.50665e-61
5.56349e+06 0.0557369 -1e-08 8.13673e-61
5.60714e+06 0.0561734 -1e-08 4.28827e-60
5.65079e+06 0.0566099 -1e-08 2.20725e-59
5.69444e+06 0.0570464 -1e-08 1.11038e-58
5.7381e+06 0.0574829 -1e-08 5.46305e-58
5.78175e+06 0.0579194 -1e-08 2.63038e-57
5.8254e+06 0.0583559 -1e-08 1.24015e-56
5.86905e+06 0.0587924 -1e-08 5.72857e-56
5.9127e+06 0.0592289 -1e-08 2.59393e-55
5.95635e+06 0.0596654 -1e-08 1.15192e-54
6e+06 0.0601019 -1e-08 5.01923e-54
6.04762e+06 0.0605781 -1e-08 2.59742e-53
6.09297e+06 0.0610316 -1e-08 1.17365e-52
6.14071e+06 0.061509 -1e-08 5.80834e-52
6.18845e+06 0.0619864 -1e-08 2.80181e-51
6.23619e+06 0.0624638 -1e-08 1.31854e-50
6.28392e+06 0.0629412 -1e-08 6.05866e-50
6.33166e+06 0.0634186 -1e-08 2.72031e-49
6.3794e+06 0.0638959 -1e-08 1.19433e-48
6.42714e+06 0.0643733 -1e-08 5.13078e-48
6.47488e+06 0.0648507 -1e-08 2.15803e-47
6.52262e+06 0.0653281 -1e-08 8.89196e-47
6.57035e+06 0.0658055 -1e-08 3.59115e-46
6.61809e+06 0.0662829 -1e-08 1.42228e-45
6.66583e+06 0.0667603 -1e-08 5.52654e-45
6.71357e+06 0.0672376 -1e-08 2.10783e-44
6.76131e+06 0.067715 -1e-08 7.89429e-44
6.80905e+06 0.0681924 -1e-08 2.90441e-43
6.85678e+06 0.0686698 -1e-08 1.05011e-42
6.90452e+06 0.0691472 -1e-08 3.73247e-42
6.95226e+06 0.0696246 -1e-08 1.30465e-41
7e+06 0.0701019 -1e-08 4.48606e-41
7.05e+06 0.0706019 -1e-08 1.63322e-40
7.1e+06 0.0711019 -1e-08 5.83585e-40
7.15e+06 0.0716019 -1e-08 2.04751e-39
7.2e+06 0.0721019 -1e-08 7.05646e-39
7.25e+06 0.0726019 -1e-08 2.38975e-38
7.3e+06 0.0731019 -1e-08 7.95572e-38
7.35e+06 0.0736019 -1e-08 2.60446e-37
7.4e+06 0.0741019 -1e-08 8.38702e-37
7.45e+06 0.0746019 -1e-08 2.65758e-36
7.5e+06 0.0751019 -1e-08 8.28858e-36
7.55e+06 0.0756019 -1e-08 2.54515e-35
7.6e+06 0.0761019 -1e-08 7.6967e-35
7.65e+06 0.0766019 -1e-08 2.29279e-34
7.7e+06 0.0771019 -1e-08 6.72979e-34
7.75e+06 0.0776019 -1e-08 1.94679e-33
7.8e+06 0.0781019 -1e-08 5.55158e-33
7.85e+06 0.0786019 -1e-08 1.56095e-32
7.9e+06 0.0791019 -1e-08 4.32842e-32
7.95e+06 0.0796019 -1e-08 1.18393e-31
8e+06 0.0801019 -1e-08 3.19492e-31
8.05263e+06 0.0806283 -1e-08 9.03405e-31
8.10526e+06 0.0811546 -1e-08 2.51568e-30
8.15789e+06 0.0816809 -1e-08 6.90064e-30
8.21053e+06 0.0822072 -1e-08 1.86506e-29
8.26316e+06 0.0827335 -1e-08 4.96787e-29
8.31579e+06 0.0832598 -1e-08 1.30442e-28
8.36842e+06 0.0837862 -1e-08 3.37702e-28
8.42105e+06 0.0843125 -1e-08 8.62195e-28
8.47368e+06 0.0848388 -1e-08 2.17132e-27
8.52632e+06 0.0853651 -1e-08 5.39476e-27
8.57895e+06 0.0858914 -1e-08 1.32261e-26
8.63158e+06 0.0864177 -1e-08 3.20025e-26
8.68421e+06 0.086944 -1e-08 7.64365e-26
8.73684e+06 0.0874704 -1e-08 1.80243e-25
8.78947e+06 0.0879967 -1e-08 4.19687e-25
8.84211e+06 0.088523 -1e-08 9.65101e-25
8.89474e+06 0.0890493 -1e-08 2.19213e-24
8.94737e+06 0.0895756 -1e-08 4.91892e-24
9e+06 0.0901019 -1e-08 1.09055e-23
9.05263e+06 0.0906283 -1e-08 2.38922e-23
9.10526e+06 0.0911546 -1e-08 5.17319e-23
9.15789e+06 0.0916809 -1e-08 1.10716e-22
9.21053e+06 0.0922072 -1e-08 2.34244e-22
9.26316e+06 0.0927335 -1e-08 4.89987e-22
9.31579e+06 0.0932598 -1e-08 1.01348e-21
9.36842e+06 0.0937862 -1e-08 2.07303e-21
9.42105e+06 0.0943125 -1e-08 4.19382e-21
9.47368e+06 0.0948388 -1e-08 8.39221e-21
9.52632e+06 0.0953651 -1e-08 1.66132e-20
9.57895e+06 0.0958914 -1e-08 3.25375e-20
